2.000000000000000000e+00,8.921099999999999586e-01,6.000000000000000000e+01,8.000000000000000000e+00
2.000000000000000000e+00,8.062000000000000277e-01,3.000000000000000000e+01,1.300000000000000000e+01
2.000000000000000000e+00,5.885500000000000176e-01,3.000000000000000000e+01,2.000000000000000000e+01
2.000000000000000000e+00,6.382999999999999785e-01,3.000000000000000000e+01,2.300000000000000000e+01
2.000000000000000000e+00,7.415300000000000225e-01,3.000000000000000000e+01,2.900000000000000000e+01
2.000000000000000000e+00,6.640599999999999836e-01,6.000000000000000000e+01,3.000000000000000000e+01
2.000000000000000000e+00,8.008100000000000218e-01,3.000000000000000000e+01,3.800000000000000000e+01
2.000000000000000000e+00,6.903299999999999992e-01,3.000000000000000000e+01,4.100000000000000000e+01
2.000000000000000000e+00,8.028600000000000181e-01,3.000000000000000000e+01,6.100000000000000000e+01
2.000000000000000000e+00,9.772300000000000431e-01,2.714000000000000057e+01,6.500000000000000000e+01
2.000000000000000000e+00,6.039900000000000269e-01,3.000000000000000000e+01,6.900000000000000000e+01
2.000000000000000000e+00,8.863199999999999967e-01,3.000000000000000000e+01,7.400000000000000000e+01
2.000000000000000000e+00,6.075899999999999634e-01,3.000000000000000000e+01,7.700000000000000000e+01
2.000000000000000000e+00,7.460200000000000164e-01,3.000000000000000000e+01,8.200000000000000000e+01
2.000000000000000000e+00,6.167700000000000404e-01,3.000000000000000000e+01,8.800000000000000000e+01
2.000000000000000000e+00,7.187200000000000255e-01,3.000000000000000000e+01,9.200000000000000000e+01
2.000000000000000000e+00,9.010000000000000231e-01,6.000000000000000000e+01,9.600000000000000000e+01
2.000000000000000000e+00,7.444800000000000306e-01,3.000000000000000000e+01,1.100000000000000000e+02
2.000000000000000000e+00,9.088100000000000067e-01,3.000000000000000000e+01,1.140000000000000000e+02
2.000000000000000000e+00,7.797300000000000342e-01,3.000000000000000000e+01,1.150000000000000000e+02
2.000000000000000000e+00,8.524699999999999500e-01,3.000000000000000000e+01,1.190000000000000000e+02
2.000000000000000000e+00,7.331100000000000394e-01,3.000000000000000000e+01,1.210000000000000000e+02
2.000000000000000000e+00,9.495299999999999851e-01,3.000000000000000000e+01,1.230000000000000000e+02
2.000000000000000000e+00,6.079400000000000359e-01,3.000000000000000000e+01,1.260000000000000000e+02
2.000000000000000000e+00,7.411999999999999700e-01,3.000000000000000000e+01,1.310000000000000000e+02
2.000000000000000000e+00,5.188599999999999879e-01,3.000000000000000000e+01,1.330000000000000000e+02
2.000000000000000000e+00,7.699099999999999833e-01,3.000000000000000000e+01,1.360000000000000000e+02
2.000000000000000000e+00,6.929400000000000004e-01,6.000000000000000000e+01,1.380000000000000000e+02
2.000000000000000000e+00,7.547899999999999610e-01,5.672999999999999687e+01,1.450000000000000000e+02
2.000000000000000000e+00,9.327900000000000080e-01,3.000000000000000000e+01,1.590000000000000000e+02
2.000000000000000000e+00,8.388999999999999790e-01,6.000000000000000000e+01,1.610000000000000000e+02
2.000000000000000000e+00,6.072499999999999565e-01,3.000000000000000000e+01,1.620000000000000000e+02
2.000000000000000000e+00,6.238700000000000356e-01,3.000000000000000000e+01,1.700000000000000000e+02
2.000000000000000000e+00,6.967999999999999750e-01,3.000000000000000000e+01,1.810000000000000000e+02
2.000000000000000000e+00,8.924400000000000110e-01,3.000000000000000000e+01,1.870000000000000000e+02
2.000000000000000000e+00,7.477099999999999858e-01,3.000000000000000000e+01,1.890000000000000000e+02
2.000000000000000000e+00,5.404099999999999460e-01,3.000000000000000000e+01,1.980000000000000000e+02
2.000000000000000000e+00,6.669899999999999718e-01,3.000000000000000000e+01,2.030000000000000000e+02
2.000000000000000000e+00,8.922999999999999821e-01,3.000000000000000000e+01,2.040000000000000000e+02
2.000000000000000000e+00,6.343499999999999694e-01,3.000000000000000000e+01,2.130000000000000000e+02
2.000000000000000000e+00,8.287600000000000522e-01,6.000000000000000000e+01,2.150000000000000000e+02
2.000000000000000000e+00,6.619500000000000384e-01,3.000000000000000000e+01,2.180000000000000000e+02
2.000000000000000000e+00,6.596699999999999786e-01,3.000000000000000000e+01,2.200000000000000000e+02
2.000000000000000000e+00,5.637999999999999678e-01,3.000000000000000000e+01,2.460000000000000000e+02
2.000000000000000000e+00,8.316099999999999604e-01,6.000000000000000000e+01,2.510000000000000000e+02
2.000000000000000000e+00,4.530000000000000138e-01,2.017999999999999972e+01,2.590000000000000000e+02
2.000000000000000000e+00,9.291800000000000059e-01,6.000000000000000000e+01,2.600000000000000000e+02
2.000000000000000000e+00,6.691500000000000226e-01,3.000000000000000000e+01,2.780000000000000000e+02
2.000000000000000000e+00,8.046999999999999709e-01,3.000000000000000000e+01,2.860000000000000000e+02
2.000000000000000000e+00,8.759200000000000319e-01,3.000000000000000000e+01,2.880000000000000000e+02
2.000000000000000000e+00,4.010099999999999776e-01,3.000000000000000000e+01,2.910000000000000000e+02
2.000000000000000000e+00,6.900600000000000067e-01,3.000000000000000000e+01,2.930000000000000000e+02
2.000000000000000000e+00,6.739600000000000035e-01,3.000000000000000000e+01,2.980000000000000000e+02
2.000000000000000000e+00,8.242899999999999672e-01,3.000000000000000000e+01,3.100000000000000000e+02
2.000000000000000000e+00,8.710400000000000365e-01,3.000000000000000000e+01,3.240000000000000000e+02
2.000000000000000000e+00,8.665599999999999969e-01,6.000000000000000000e+01,3.250000000000000000e+02
2.000000000000000000e+00,9.413799999999999946e-01,3.000000000000000000e+01,3.270000000000000000e+02
2.000000000000000000e+00,5.694399999999999462e-01,3.000000000000000000e+01,3.290000000000000000e+02
2.000000000000000000e+00,6.187700000000000422e-01,3.000000000000000000e+01,3.350000000000000000e+02
2.000000000000000000e+00,4.306499999999999773e-01,6.000000000000000000e+01,3.370000000000000000e+02
2.000000000000000000e+00,7.269200000000000106e-01,3.000000000000000000e+01,3.420000000000000000e+02
2.000000000000000000e+00,6.455199999999999827e-01,3.000000000000000000e+01,3.430000000000000000e+02
2.000000000000000000e+00,6.511099999999999666e-01,2.328999999999999915e+01,3.440000000000000000e+02
2.000000000000000000e+00,7.477599999999999802e-01,3.000000000000000000e+01,3.480000000000000000e+02
2.000000000000000000e+00,8.439900000000000180e-01,6.000000000000000000e+01,3.530000000000000000e+02
2.000000000000000000e+00,9.579400000000000137e-01,3.000000000000000000e+01,3.840000000000000000e+02
2.000000000000000000e+00,8.868800000000000017e-01,6.000000000000000000e+01,3.890000000000000000e+02
2.000000000000000000e+00,6.130600000000000493e-01,3.000000000000000000e+01,3.960000000000000000e+02
2.000000000000000000e+00,9.125600000000000378e-01,3.000000000000000000e+01,3.990000000000000000e+02
2.000000000000000000e+00,7.930300000000000127e-01,6.000000000000000000e+01,4.060000000000000000e+02
2.000000000000000000e+00,9.207400000000000029e-01,5.164000000000000057e+01,4.130000000000000000e+02
2.000000000000000000e+00,7.427000000000000268e-01,3.000000000000000000e+01,4.270000000000000000e+02
2.000000000000000000e+00,7.346500000000000252e-01,3.000000000000000000e+01,4.280000000000000000e+02
2.000000000000000000e+00,7.903000000000000025e-01,3.000000000000000000e+01,4.340000000000000000e+02
2.000000000000000000e+00,8.872200000000000086e-01,3.000000000000000000e+01,4.430000000000000000e+02
2.000000000000000000e+00,6.444999999999999618e-01,6.000000000000000000e+01,4.530000000000000000e+02
2.000000000000000000e+00,9.739499999999999824e-01,6.000000000000000000e+01,4.610000000000000000e+02
2.000000000000000000e+00,8.178699999999999859e-01,3.000000000000000000e+01,4.660000000000000000e+02
2.000000000000000000e+00,8.864900000000000002e-01,3.000000000000000000e+01,4.680000000000000000e+02
2.000000000000000000e+00,6.728199999999999736e-01,6.000000000000000000e+01,4.770000000000000000e+02
2.000000000000000000e+00,7.363100000000000200e-01,6.000000000000000000e+01,4.840000000000000000e+02
2.000000000000000000e+00,9.069899999999999629e-01,3.000000000000000000e+01,4.980000000000000000e+02
2.000000000000000000e+00,9.240800000000000125e-01,3.000000000000000000e+01,5.030000000000000000e+02
2.000000000000000000e+00,9.729400000000000270e-01,3.000000000000000000e+01,5.110000000000000000e+02
2.000000000000000000e+00,8.836800000000000210e-01,3.000000000000000000e+01,5.210000000000000000e+02
2.000000000000000000e+00,6.770599999999999952e-01,3.000000000000000000e+01,5.220000000000000000e+02
2.000000000000000000e+00,8.025900000000000256e-01,3.000000000000000000e+01,5.230000000000000000e+02
2.000000000000000000e+00,8.847899999999999654e-01,3.000000000000000000e+01,5.290000000000000000e+02
2.000000000000000000e+00,9.523899999999999588e-01,3.000000000000000000e+01,5.330000000000000000e+02
2.000000000000000000e+00,9.057100000000000151e-01,6.000000000000000000e+01,5.390000000000000000e+02
2.000000000000000000e+00,6.991800000000000237e-01,3.000000000000000000e+01,5.540000000000000000e+02
2.000000000000000000e+00,7.245000000000000329e-01,3.000000000000000000e+01,5.560000000000000000e+02
2.000000000000000000e+00,6.352400000000000269e-01,2.600000000000000000e+01,5.570000000000000000e+02
2.000000000000000000e+00,5.586999999999999744e-01,3.000000000000000000e+01,5.590000000000000000e+02
2.000000000000000000e+00,7.412400000000000100e-01,3.000000000000000000e+01,5.610000000000000000e+02
2.000000000000000000e+00,5.902100000000000124e-01,3.000000000000000000e+01,5.650000000000000000e+02
2.000000000000000000e+00,9.780499999999999750e-01,2.935000000000000142e+01,5.720000000000000000e+02
2.000000000000000000e+00,9.067100000000000160e-01,3.000000000000000000e+01,5.770000000000000000e+02
2.000000000000000000e+00,9.041500000000000092e-01,3.000000000000000000e+01,5.930000000000000000e+02
2.000000000000000000e+00,6.441400000000000459e-01,3.000000000000000000e+01,6.030000000000000000e+02
2.000000000000000000e+00,9.040099999999999802e-01,3.000000000000000000e+01,6.080000000000000000e+02
2.000000000000000000e+00,6.459500000000000242e-01,3.000000000000000000e+01,6.230000000000000000e+02
2.000000000000000000e+00,7.921700000000000408e-01,6.000000000000000000e+01,6.340000000000000000e+02
2.000000000000000000e+00,9.400199999999999667e-01,3.000000000000000000e+01,6.380000000000000000e+02
2.000000000000000000e+00,7.381299999999999528e-01,6.000000000000000000e+01,6.400000000000000000e+02
2.000000000000000000e+00,7.502299999999999525e-01,3.000000000000000000e+01,6.460000000000000000e+02
2.000000000000000000e+00,9.610100000000000309e-01,6.000000000000000000e+01,6.490000000000000000e+02
2.000000000000000000e+00,9.269300000000000317e-01,3.000000000000000000e+01,6.500000000000000000e+02
2.000000000000000000e+00,6.254899999999999904e-01,3.000000000000000000e+01,6.530000000000000000e+02
2.000000000000000000e+00,9.411000000000000476e-01,3.000000000000000000e+01,6.560000000000000000e+02
2.000000000000000000e+00,5.828600000000000447e-01,3.001999999999999957e+01,6.640000000000000000e+02
2.000000000000000000e+00,5.689899999999999958e-01,3.000000000000000000e+01,6.790000000000000000e+02
2.000000000000000000e+00,9.612100000000000088e-01,3.000000000000000000e+01,6.870000000000000000e+02
2.000000000000000000e+00,6.938600000000000323e-01,3.000000000000000000e+01,6.880000000000000000e+02
2.000000000000000000e+00,7.061300000000000354e-01,3.000000000000000000e+01,6.930000000000000000e+02
2.000000000000000000e+00,5.446499999999999675e-01,3.000000000000000000e+01,6.960000000000000000e+02
2.000000000000000000e+00,8.939700000000000424e-01,3.000000000000000000e+01,6.970000000000000000e+02
2.000000000000000000e+00,8.099399999999999933e-01,3.000000000000000000e+01,6.990000000000000000e+02
2.000000000000000000e+00,7.435699999999999532e-01,3.000000000000000000e+01,7.020000000000000000e+02
2.000000000000000000e+00,7.336500000000000243e-01,3.000000000000000000e+01,7.090000000000000000e+02
2.000000000000000000e+00,8.784800000000000386e-01,6.000000000000000000e+01,7.120000000000000000e+02
2.000000000000000000e+00,7.239200000000000079e-01,6.000000000000000000e+01,7.160000000000000000e+02
2.000000000000000000e+00,5.964800000000000102e-01,3.000000000000000000e+01,7.180000000000000000e+02
2.000000000000000000e+00,8.956399999999999917e-01,3.000000000000000000e+01,7.230000000000000000e+02
2.000000000000000000e+00,9.516900000000000359e-01,3.000000000000000000e+01,7.320000000000000000e+02
2.000000000000000000e+00,8.954299999999999482e-01,3.000000000000000000e+01,7.370000000000000000e+02
2.000000000000000000e+00,7.217299999999999827e-01,3.000000000000000000e+01,7.400000000000000000e+02
2.000000000000000000e+00,9.440699999999999648e-01,3.000000000000000000e+01,7.410000000000000000e+02
2.000000000000000000e+00,4.717899999999999872e-01,3.000000000000000000e+01,7.420000000000000000e+02
2.000000000000000000e+00,8.887199999999999545e-01,3.000000000000000000e+01,7.450000000000000000e+02
2.000000000000000000e+00,6.386600000000000055e-01,3.000000000000000000e+01,7.460000000000000000e+02
2.000000000000000000e+00,8.508299999999999752e-01,3.000000000000000000e+01,7.660000000000000000e+02
2.000000000000000000e+00,5.846200000000000285e-01,3.472999999999999687e+01,7.670000000000000000e+02
2.000000000000000000e+00,8.927599999999999980e-01,3.000000000000000000e+01,7.700000000000000000e+02
2.000000000000000000e+00,8.560799999999999521e-01,3.000000000000000000e+01,7.850000000000000000e+02
2.000000000000000000e+00,9.460899999999999865e-01,3.000000000000000000e+01,7.870000000000000000e+02
2.000000000000000000e+00,9.795800000000000063e-01,6.000000000000000000e+01,7.880000000000000000e+02
2.000000000000000000e+00,9.719299999999999606e-01,6.000000000000000000e+01,7.890000000000000000e+02
2.000000000000000000e+00,6.380200000000000315e-01,3.000000000000000000e+01,7.930000000000000000e+02
2.000000000000000000e+00,7.686300000000000354e-01,3.000000000000000000e+01,8.070000000000000000e+02
2.000000000000000000e+00,5.210399999999999476e-01,2.544999999999999929e+01,8.200000000000000000e+02
2.000000000000000000e+00,8.859500000000000153e-01,3.000000000000000000e+01,8.350000000000000000e+02
2.000000000000000000e+00,9.511500000000000510e-01,6.000000000000000000e+01,8.490000000000000000e+02
2.000000000000000000e+00,6.502099999999999547e-01,3.000000000000000000e+01,8.500000000000000000e+02
2.000000000000000000e+00,5.753099999999999881e-01,6.000000000000000000e+01,8.510000000000000000e+02
2.000000000000000000e+00,6.642400000000000526e-01,3.000000000000000000e+01,8.550000000000000000e+02
2.000000000000000000e+00,8.538599999999999524e-01,3.000000000000000000e+01,8.720000000000000000e+02
2.000000000000000000e+00,5.158899999999999597e-01,3.000000000000000000e+01,8.750000000000000000e+02
2.000000000000000000e+00,8.378299999999999637e-01,3.000000000000000000e+01,8.780000000000000000e+02
2.000000000000000000e+00,9.491500000000000492e-01,6.000000000000000000e+01,8.870000000000000000e+02
2.000000000000000000e+00,8.204799999999999871e-01,3.000000000000000000e+01,8.890000000000000000e+02
2.000000000000000000e+00,9.848000000000000087e-01,6.000000000000000000e+01,8.920000000000000000e+02
2.000000000000000000e+00,9.300899999999999723e-01,3.000000000000000000e+01,9.030000000000000000e+02
2.000000000000000000e+00,6.646499999999999631e-01,3.000000000000000000e+01,9.060000000000000000e+02
2.000000000000000000e+00,4.764200000000000101e-01,3.000000000000000000e+01,9.080000000000000000e+02
2.000000000000000000e+00,4.856800000000000006e-01,3.000000000000000000e+01,9.130000000000000000e+02
2.000000000000000000e+00,9.708499999999999908e-01,3.000000000000000000e+01,9.140000000000000000e+02
2.000000000000000000e+00,7.904900000000000260e-01,6.000000000000000000e+01,9.160000000000000000e+02
2.000000000000000000e+00,7.974499999999999922e-01,3.000000000000000000e+01,9.170000000000000000e+02
2.000000000000000000e+00,7.868800000000000239e-01,6.000000000000000000e+01,9.190000000000000000e+02
2.000000000000000000e+00,5.198300000000000143e-01,3.000000000000000000e+01,9.270000000000000000e+02
2.000000000000000000e+00,5.777099999999999458e-01,3.000000000000000000e+01,9.350000000000000000e+02
2.000000000000000000e+00,6.198299999999999921e-01,3.000000000000000000e+01,9.570000000000000000e+02
2.000000000000000000e+00,5.664400000000000546e-01,6.000000000000000000e+01,9.680000000000000000e+02
2.000000000000000000e+00,7.248299999999999743e-01,3.000000000000000000e+01,9.710000000000000000e+02
2.000000000000000000e+00,8.585099999999999953e-01,3.000000000000000000e+01,9.750000000000000000e+02
2.000000000000000000e+00,7.771299999999999875e-01,3.000000000000000000e+01,9.770000000000000000e+02
2.000000000000000000e+00,8.454099999999999948e-01,3.000000000000000000e+01,9.790000000000000000e+02
2.000000000000000000e+00,5.569899999999999851e-01,3.000000000000000000e+01,9.890000000000000000e+02
2.000000000000000000e+00,5.069599999999999662e-01,2.787999999999999901e+01,9.910000000000000000e+02
2.000000000000000000e+00,6.460000000000000187e-01,3.000000000000000000e+01,9.930000000000000000e+02
2.000000000000000000e+00,8.640999999999999792e-01,3.000000000000000000e+01,9.970000000000000000e+02
2.000000000000000000e+00,5.405499999999999750e-01,3.000000000000000000e+01,1.025000000000000000e+03
2.000000000000000000e+00,8.191899999999999737e-01,3.000000000000000000e+01,1.030000000000000000e+03
2.000000000000000000e+00,8.288900000000000157e-01,3.000000000000000000e+01,1.031000000000000000e+03
2.000000000000000000e+00,5.250299999999999967e-01,3.000000000000000000e+01,1.036000000000000000e+03
2.000000000000000000e+00,5.917299999999999782e-01,3.000000000000000000e+01,1.065000000000000000e+03
2.000000000000000000e+00,9.180800000000000072e-01,6.000000000000000000e+01,1.068000000000000000e+03
2.000000000000000000e+00,8.667099999999999804e-01,6.000000000000000000e+01,1.071000000000000000e+03
2.000000000000000000e+00,4.863600000000000145e-01,3.799000000000000199e+01,1.072000000000000000e+03
2.000000000000000000e+00,9.426799999999999624e-01,3.000000000000000000e+01,1.073000000000000000e+03
2.000000000000000000e+00,6.788399999999999990e-01,6.000000000000000000e+01,1.078000000000000000e+03
2.000000000000000000e+00,5.900400000000000089e-01,4.510999999999999943e+01,1.081000000000000000e+03
2.000000000000000000e+00,8.041899999999999604e-01,6.000000000000000000e+01,1.084000000000000000e+03
2.000000000000000000e+00,9.012099999999999556e-01,3.000000000000000000e+01,1.091000000000000000e+03
2.000000000000000000e+00,5.504000000000000004e-01,6.000000000000000000e+01,1.095000000000000000e+03
2.000000000000000000e+00,4.928799999999999848e-01,3.000000000000000000e+01,1.099000000000000000e+03
2.000000000000000000e+00,8.988099999999999978e-01,6.000000000000000000e+01,1.100000000000000000e+03
2.000000000000000000e+00,6.767199999999999882e-01,3.000000000000000000e+01,1.115000000000000000e+03
2.000000000000000000e+00,7.766800000000000370e-01,3.000000000000000000e+01,1.124000000000000000e+03
2.000000000000000000e+00,5.719800000000000439e-01,3.000000000000000000e+01,1.130000000000000000e+03
2.000000000000000000e+00,8.278799999999999493e-01,3.000000000000000000e+01,1.131000000000000000e+03
2.000000000000000000e+00,9.318100000000000271e-01,3.000000000000000000e+01,1.133000000000000000e+03
2.000000000000000000e+00,8.419600000000000417e-01,3.000000000000000000e+01,1.134000000000000000e+03
2.000000000000000000e+00,7.528599999999999737e-01,3.000000000000000000e+01,1.136000000000000000e+03
2.000000000000000000e+00,8.205299999999999816e-01,3.000000000000000000e+01,1.145000000000000000e+03
2.000000000000000000e+00,9.581199999999999717e-01,3.000000000000000000e+01,1.152000000000000000e+03
2.000000000000000000e+00,9.783800000000000274e-01,3.000000000000000000e+01,1.154000000000000000e+03
2.000000000000000000e+00,3.684899999999999842e-01,1.728999999999999915e+01,1.156000000000000000e+03
2.000000000000000000e+00,7.068799999999999528e-01,6.000000000000000000e+01,1.173000000000000000e+03
2.000000000000000000e+00,8.942499999999999893e-01,3.000000000000000000e+01,1.175000000000000000e+03
2.000000000000000000e+00,5.720600000000000129e-01,6.000000000000000000e+01,1.177000000000000000e+03
2.000000000000000000e+00,8.262100000000000000e-01,3.000000000000000000e+01,1.178000000000000000e+03
2.000000000000000000e+00,5.957400000000000473e-01,3.000000000000000000e+01,1.182000000000000000e+03
2.000000000000000000e+00,7.946699999999999875e-01,3.000000000000000000e+01,1.183000000000000000e+03
2.000000000000000000e+00,7.382199999999999873e-01,3.000000000000000000e+01,1.187000000000000000e+03
2.000000000000000000e+00,5.665499999999999980e-01,3.000000000000000000e+01,1.188000000000000000e+03
2.000000000000000000e+00,8.010000000000000453e-01,3.000000000000000000e+01,1.191000000000000000e+03
2.000000000000000000e+00,5.297300000000000342e-01,3.000000000000000000e+01,1.193000000000000000e+03
2.000000000000000000e+00,9.299699999999999633e-01,3.000000000000000000e+01,1.201000000000000000e+03
2.000000000000000000e+00,6.303900000000000059e-01,3.000000000000000000e+01,1.209000000000000000e+03
2.000000000000000000e+00,4.582600000000000007e-01,3.000000000000000000e+01,1.219000000000000000e+03
2.000000000000000000e+00,9.170700000000000518e-01,3.000000000000000000e+01,1.220000000000000000e+03
2.000000000000000000e+00,7.481999999999999762e-01,3.000000000000000000e+01,1.226000000000000000e+03
2.000000000000000000e+00,8.251600000000000046e-01,6.000000000000000000e+01,1.236000000000000000e+03
2.000000000000000000e+00,7.988800000000000345e-01,3.000000000000000000e+01,1.241000000000000000e+03
2.000000000000000000e+00,5.968599999999999461e-01,3.000000000000000000e+01,1.245000000000000000e+03
2.000000000000000000e+00,4.805800000000000072e-01,6.000000000000000000e+01,1.250000000000000000e+03
2.000000000000000000e+00,6.388500000000000290e-01,6.000000000000000000e+01,1.274000000000000000e+03
2.000000000000000000e+00,6.867499999999999716e-01,3.000000000000000000e+01,1.280000000000000000e+03
2.000000000000000000e+00,8.502199999999999758e-01,3.000000000000000000e+01,1.281000000000000000e+03
2.000000000000000000e+00,8.616599999999999815e-01,3.000000000000000000e+01,1.286000000000000000e+03
2.000000000000000000e+00,6.816600000000000437e-01,2.637000000000000099e+01,1.291000000000000000e+03
2.000000000000000000e+00,5.017099999999999893e-01,3.000000000000000000e+01,1.294000000000000000e+03
2.000000000000000000e+00,7.004899999999999460e-01,3.000000000000000000e+01,1.295000000000000000e+03
2.000000000000000000e+00,9.405799999999999716e-01,3.000000000000000000e+01,1.298000000000000000e+03
2.000000000000000000e+00,3.284599999999999742e-01,6.000000000000000000e+01,1.300000000000000000e+03
2.000000000000000000e+00,5.962800000000000322e-01,2.773999999999999844e+01,1.310000000000000000e+03
2.000000000000000000e+00,6.624600000000000488e-01,3.000000000000000000e+01,1.316000000000000000e+03
2.000000000000000000e+00,9.031700000000000284e-01,3.000000000000000000e+01,1.317000000000000000e+03
2.000000000000000000e+00,3.558000000000000052e-01,3.000000000000000000e+01,1.322000000000000000e+03
2.000000000000000000e+00,5.849699999999999900e-01,3.000000000000000000e+01,1.332000000000000000e+03
2.000000000000000000e+00,7.788899999999999713e-01,3.000000000000000000e+01,1.333000000000000000e+03
2.000000000000000000e+00,9.724899999999999656e-01,6.000000000000000000e+01,1.334000000000000000e+03
2.000000000000000000e+00,4.984600000000000142e-01,3.000000000000000000e+01,1.343000000000000000e+03
2.000000000000000000e+00,9.881699999999999928e-01,3.000000000000000000e+01,1.345000000000000000e+03
2.000000000000000000e+00,7.023500000000000298e-01,6.000000000000000000e+01,1.350000000000000000e+03
2.000000000000000000e+00,8.211100000000000065e-01,3.000000000000000000e+01,1.354000000000000000e+03
2.000000000000000000e+00,3.791399999999999770e-01,3.000000000000000000e+01,1.356000000000000000e+03
2.000000000000000000e+00,6.852899999999999547e-01,3.000000000000000000e+01,1.366000000000000000e+03
2.000000000000000000e+00,7.551900000000000279e-01,6.000000000000000000e+01,1.375000000000000000e+03
2.000000000000000000e+00,9.422599999999999865e-01,3.000000000000000000e+01,1.400000000000000000e+03
2.000000000000000000e+00,9.008399999999999741e-01,3.000000000000000000e+01,1.407000000000000000e+03
2.000000000000000000e+00,9.671699999999999742e-01,3.000000000000000000e+01,1.418000000000000000e+03
2.000000000000000000e+00,8.376000000000000112e-01,6.000000000000000000e+01,1.419000000000000000e+03
2.000000000000000000e+00,7.194700000000000539e-01,3.000000000000000000e+01,1.436000000000000000e+03
2.000000000000000000e+00,8.331499999999999462e-01,3.000000000000000000e+01,1.438000000000000000e+03
2.000000000000000000e+00,7.086099999999999621e-01,3.000000000000000000e+01,1.452000000000000000e+03
2.000000000000000000e+00,7.740299999999999958e-01,3.000000000000000000e+01,1.454000000000000000e+03
2.000000000000000000e+00,8.392500000000000515e-01,5.965999999999999659e+01,1.458000000000000000e+03
2.000000000000000000e+00,7.920500000000000318e-01,6.000000000000000000e+01,1.459000000000000000e+03
2.000000000000000000e+00,9.757599999999999607e-01,3.000000000000000000e+01,1.461000000000000000e+03
2.000000000000000000e+00,6.848899999999999988e-01,6.000000000000000000e+01,1.466000000000000000e+03
2.000000000000000000e+00,7.878899999999999793e-01,6.000000000000000000e+01,1.469000000000000000e+03
2.000000000000000000e+00,7.315099999999999936e-01,3.000000000000000000e+01,1.471000000000000000e+03
2.000000000000000000e+00,7.927100000000000257e-01,3.000000000000000000e+01,1.474000000000000000e+03
2.000000000000000000e+00,6.748699999999999699e-01,3.000000000000000000e+01,1.478000000000000000e+03
2.000000000000000000e+00,9.358499999999999597e-01,6.000000000000000000e+01,1.487000000000000000e+03
2.000000000000000000e+00,5.139500000000000179e-01,3.000000000000000000e+01,1.516000000000000000e+03
2.000000000000000000e+00,4.815900000000000181e-01,3.000000000000000000e+01,1.518000000000000000e+03
2.000000000000000000e+00,8.690200000000000147e-01,3.000000000000000000e+01,1.525000000000000000e+03
2.000000000000000000e+00,4.689999999999999725e-01,3.000000000000000000e+01,1.526000000000000000e+03
2.000000000000000000e+00,6.189599999999999547e-01,3.000000000000000000e+01,1.532000000000000000e+03
2.000000000000000000e+00,8.876399999999999846e-01,3.000000000000000000e+01,1.536000000000000000e+03
2.000000000000000000e+00,7.841900000000000537e-01,6.000000000000000000e+01,1.540000000000000000e+03
2.000000000000000000e+00,7.219400000000000261e-01,3.000000000000000000e+01,1.543000000000000000e+03
2.000000000000000000e+00,7.337200000000000388e-01,3.000000000000000000e+01,1.546000000000000000e+03
2.000000000000000000e+00,6.600000000000000311e-01,3.000000000000000000e+01,1.547000000000000000e+03
2.000000000000000000e+00,6.812200000000000477e-01,3.000000000000000000e+01,1.552000000000000000e+03
2.000000000000000000e+00,6.699399999999999800e-01,6.000000000000000000e+01,1.561000000000000000e+03
2.000000000000000000e+00,8.321300000000000363e-01,4.196000000000000085e+01,1.563000000000000000e+03
2.000000000000000000e+00,9.246999999999999664e-01,3.000000000000000000e+01,1.564000000000000000e+03
2.000000000000000000e+00,7.866499999999999604e-01,3.000000000000000000e+01,1.565000000000000000e+03
2.000000000000000000e+00,9.354000000000000092e-01,3.000000000000000000e+01,1.571000000000000000e+03
2.000000000000000000e+00,9.729499999999999815e-01,3.000000000000000000e+01,1.581000000000000000e+03
2.000000000000000000e+00,6.881899999999999684e-01,3.000000000000000000e+01,1.583000000000000000e+03
2.000000000000000000e+00,9.857000000000000206e-01,6.000000000000000000e+01,1.586000000000000000e+03
2.000000000000000000e+00,8.938000000000000389e-01,6.000000000000000000e+01,1.587000000000000000e+03
2.000000000000000000e+00,8.634699999999999598e-01,3.000000000000000000e+01,1.588000000000000000e+03
2.000000000000000000e+00,7.150699999999999834e-01,3.000000000000000000e+01,1.592000000000000000e+03
2.000000000000000000e+00,5.283099999999999463e-01,3.000000000000000000e+01,1.598000000000000000e+03
2.000000000000000000e+00,8.329699999999999882e-01,3.000000000000000000e+01,1.602000000000000000e+03
2.000000000000000000e+00,6.501500000000000057e-01,3.000000000000000000e+01,1.606000000000000000e+03
2.000000000000000000e+00,8.140100000000000113e-01,3.000000000000000000e+01,1.608000000000000000e+03
2.000000000000000000e+00,9.423300000000000010e-01,3.000000000000000000e+01,1.620000000000000000e+03
2.000000000000000000e+00,6.419099999999999806e-01,3.000000000000000000e+01,1.627000000000000000e+03
2.000000000000000000e+00,8.047400000000000109e-01,3.000000000000000000e+01,1.632000000000000000e+03
2.000000000000000000e+00,6.409500000000000197e-01,3.000000000000000000e+01,1.634000000000000000e+03
2.000000000000000000e+00,5.816299999999999804e-01,1.260999999999999943e+01,1.635000000000000000e+03
2.000000000000000000e+00,8.262699999999999489e-01,3.000000000000000000e+01,1.639000000000000000e+03
2.000000000000000000e+00,8.075499999999999901e-01,3.000000000000000000e+01,1.643000000000000000e+03
2.000000000000000000e+00,9.816500000000000226e-01,4.996000000000000085e+01,1.649000000000000000e+03
2.000000000000000000e+00,9.595200000000000395e-01,6.000000000000000000e+01,1.651000000000000000e+03
2.000000000000000000e+00,7.711200000000000276e-01,3.000000000000000000e+01,1.667000000000000000e+03
2.000000000000000000e+00,7.899399999999999755e-01,6.000000000000000000e+01,1.668000000000000000e+03
2.000000000000000000e+00,6.350500000000000034e-01,3.000000000000000000e+01,1.669000000000000000e+03
2.000000000000000000e+00,8.803400000000000114e-01,3.000000000000000000e+01,1.672000000000000000e+03
2.000000000000000000e+00,9.771800000000000486e-01,3.000000000000000000e+01,1.676000000000000000e+03
2.000000000000000000e+00,5.922300000000000342e-01,3.000000000000000000e+01,1.679000000000000000e+03
2.000000000000000000e+00,6.737600000000000255e-01,3.000000000000000000e+01,1.690000000000000000e+03
2.000000000000000000e+00,7.407299999999999995e-01,3.000000000000000000e+01,1.692000000000000000e+03
2.000000000000000000e+00,7.336200000000000498e-01,3.000000000000000000e+01,1.709000000000000000e+03
2.000000000000000000e+00,7.123300000000000187e-01,3.000000000000000000e+01,1.716000000000000000e+03
2.000000000000000000e+00,9.616099999999999648e-01,6.000000000000000000e+01,1.722000000000000000e+03
2.000000000000000000e+00,8.762699999999999934e-01,3.000000000000000000e+01,1.723000000000000000e+03
2.000000000000000000e+00,8.773499999999999632e-01,3.000000000000000000e+01,1.731000000000000000e+03
2.000000000000000000e+00,9.830799999999999539e-01,3.000000000000000000e+01,1.737000000000000000e+03
2.000000000000000000e+00,9.452300000000000146e-01,4.703999999999999915e+01,1.744000000000000000e+03
2.000000000000000000e+00,8.164299999999999891e-01,3.000000000000000000e+01,1.746000000000000000e+03
2.000000000000000000e+00,6.850899999999999768e-01,3.000000000000000000e+01,1.764000000000000000e+03
2.000000000000000000e+00,8.105400000000000382e-01,6.000000000000000000e+01,1.774000000000000000e+03
2.000000000000000000e+00,7.282800000000000384e-01,3.000000000000000000e+01,1.795000000000000000e+03
2.000000000000000000e+00,8.350499999999999590e-01,6.000000000000000000e+01,1.809000000000000000e+03
2.000000000000000000e+00,6.238399999999999501e-01,3.000000000000000000e+01,1.813000000000000000e+03
2.000000000000000000e+00,7.488599999999999701e-01,3.008999999999999986e+01,1.825000000000000000e+03
2.000000000000000000e+00,5.060099999999999598e-01,3.000000000000000000e+01,1.826000000000000000e+03
2.000000000000000000e+00,8.516000000000000236e-01,6.000000000000000000e+01,1.834000000000000000e+03
2.000000000000000000e+00,8.971500000000000030e-01,3.071000000000000085e+01,1.836000000000000000e+03
2.000000000000000000e+00,7.957899999999999974e-01,6.000000000000000000e+01,1.839000000000000000e+03
2.000000000000000000e+00,6.565499999999999670e-01,1.646999999999999886e+01,1.842000000000000000e+03
2.000000000000000000e+00,8.849599999999999689e-01,3.000000000000000000e+01,1.852000000000000000e+03
2.000000000000000000e+00,8.780900000000000372e-01,3.000000000000000000e+01,1.872000000000000000e+03
2.000000000000000000e+00,7.921899999999999498e-01,3.000000000000000000e+01,1.893000000000000000e+03
2.000000000000000000e+00,6.346199999999999619e-01,2.673000000000000043e+01,1.903000000000000000e+03
2.000000000000000000e+00,9.260099999999999998e-01,3.000000000000000000e+01,1.907000000000000000e+03
2.000000000000000000e+00,7.394399999999999862e-01,5.017000000000000171e+01,1.909000000000000000e+03
2.000000000000000000e+00,7.528700000000000392e-01,6.000000000000000000e+01,1.913000000000000000e+03
2.000000000000000000e+00,7.519200000000000328e-01,6.000000000000000000e+01,1.916000000000000000e+03
2.000000000000000000e+00,5.583500000000000130e-01,3.000000000000000000e+01,1.918000000000000000e+03
2.000000000000000000e+00,6.221100000000000518e-01,3.000000000000000000e+01,1.919000000000000000e+03
2.000000000000000000e+00,5.009299999999999864e-01,3.000000000000000000e+01,1.925000000000000000e+03
2.000000000000000000e+00,8.694199999999999706e-01,3.000000000000000000e+01,1.928000000000000000e+03
2.000000000000000000e+00,8.812999999999999723e-01,3.665999999999999659e+01,1.929000000000000000e+03
2.000000000000000000e+00,9.272399999999999531e-01,3.000000000000000000e+01,1.937000000000000000e+03
2.000000000000000000e+00,6.587399999999999922e-01,3.000000000000000000e+01,1.944000000000000000e+03
2.000000000000000000e+00,5.195199999999999818e-01,3.000000000000000000e+01,1.954000000000000000e+03
2.000000000000000000e+00,7.466199999999999504e-01,3.000000000000000000e+01,1.961000000000000000e+03
2.000000000000000000e+00,6.062400000000000011e-01,3.000000000000000000e+01,1.974000000000000000e+03
2.000000000000000000e+00,8.268799999999999484e-01,3.000000000000000000e+01,1.983000000000000000e+03
2.000000000000000000e+00,5.151099999999999568e-01,3.000000000000000000e+01,1.997000000000000000e+03
2.000000000000000000e+00,5.357499999999999485e-01,3.000000000000000000e+01,2.002000000000000000e+03
2.000000000000000000e+00,5.212999999999999856e-01,3.000000000000000000e+01,2.003000000000000000e+03
2.000000000000000000e+00,8.208299999999999486e-01,3.495000000000000284e+01,2.004000000000000000e+03
2.000000000000000000e+00,8.743999999999999551e-01,6.061999999999999744e+01,2.005000000000000000e+03
2.000000000000000000e+00,5.417899999999999938e-01,3.000000000000000000e+01,2.007000000000000000e+03
2.000000000000000000e+00,8.165700000000000180e-01,5.971000000000000085e+01,2.011000000000000000e+03
2.000000000000000000e+00,5.426499999999999657e-01,3.000000000000000000e+01,2.012000000000000000e+03
2.000000000000000000e+00,8.049800000000000288e-01,3.000000000000000000e+01,2.019000000000000000e+03
2.000000000000000000e+00,9.664300000000000113e-01,3.000000000000000000e+01,2.024000000000000000e+03
2.000000000000000000e+00,5.289700000000000513e-01,3.000000000000000000e+01,2.027000000000000000e+03
2.000000000000000000e+00,7.226500000000000146e-01,3.000000000000000000e+01,2.031000000000000000e+03
2.000000000000000000e+00,5.983899999999999775e-01,3.000000000000000000e+01,2.035000000000000000e+03
2.000000000000000000e+00,7.750799999999999912e-01,3.000000000000000000e+01,2.036000000000000000e+03
2.000000000000000000e+00,6.861199999999999521e-01,3.000000000000000000e+01,2.044000000000000000e+03
2.000000000000000000e+00,6.959999999999999520e-01,2.046999999999999886e+01,2.053000000000000000e+03
2.000000000000000000e+00,5.054999999999999494e-01,3.000000000000000000e+01,2.056000000000000000e+03
2.000000000000000000e+00,7.932299999999999907e-01,6.000000000000000000e+01,2.062000000000000000e+03
2.000000000000000000e+00,8.463699999999999557e-01,3.467999999999999972e+01,2.066000000000000000e+03
2.000000000000000000e+00,8.870799999999999796e-01,3.000000000000000000e+01,2.067000000000000000e+03
2.000000000000000000e+00,8.218600000000000350e-01,3.000000000000000000e+01,2.068000000000000000e+03
2.000000000000000000e+00,6.512900000000000356e-01,3.000000000000000000e+01,2.084000000000000000e+03
2.000000000000000000e+00,9.174099999999999477e-01,3.000000000000000000e+01,2.091000000000000000e+03
2.000000000000000000e+00,8.343000000000000416e-01,3.000000000000000000e+01,2.092000000000000000e+03
2.000000000000000000e+00,4.570199999999999818e-01,3.000000000000000000e+01,2.101000000000000000e+03
2.000000000000000000e+00,6.391900000000000359e-01,3.000000000000000000e+01,2.105000000000000000e+03
2.000000000000000000e+00,8.416799999999999837e-01,6.000000000000000000e+01,2.107000000000000000e+03
2.000000000000000000e+00,8.959099999999999842e-01,3.000000000000000000e+01,2.112000000000000000e+03
2.000000000000000000e+00,7.837600000000000122e-01,3.000000000000000000e+01,2.117000000000000000e+03
2.000000000000000000e+00,6.542000000000000037e-01,4.599000000000000199e+01,2.118000000000000000e+03
2.000000000000000000e+00,5.176500000000000545e-01,1.962999999999999901e+01,2.121000000000000000e+03
2.000000000000000000e+00,5.987099999999999644e-01,3.000000000000000000e+01,2.152000000000000000e+03
2.000000000000000000e+00,9.489699999999999802e-01,3.000000000000000000e+01,2.153000000000000000e+03
2.000000000000000000e+00,6.399899999999999478e-01,3.000000000000000000e+01,2.157000000000000000e+03
2.000000000000000000e+00,4.945999999999999841e-01,6.000000000000000000e+01,2.158000000000000000e+03
2.000000000000000000e+00,4.896900000000000142e-01,3.000000000000000000e+01,2.163000000000000000e+03
2.000000000000000000e+00,7.665800000000000392e-01,3.311999999999999744e+01,2.164000000000000000e+03
2.000000000000000000e+00,9.248499999999999499e-01,3.000000000000000000e+01,2.170000000000000000e+03
2.000000000000000000e+00,8.081000000000000405e-01,3.000000000000000000e+01,2.171000000000000000e+03
2.000000000000000000e+00,7.877499999999999503e-01,3.000000000000000000e+01,2.176000000000000000e+03
2.000000000000000000e+00,7.743499999999999828e-01,3.000000000000000000e+01,2.177000000000000000e+03
2.000000000000000000e+00,9.347199999999999953e-01,3.000000000000000000e+01,2.180000000000000000e+03
2.000000000000000000e+00,7.960500000000000353e-01,6.000000000000000000e+01,2.187000000000000000e+03
2.000000000000000000e+00,8.259900000000000020e-01,3.463000000000000256e+01,2.193000000000000000e+03
2.000000000000000000e+00,7.471999999999999753e-01,3.000000000000000000e+01,2.194000000000000000e+03
2.000000000000000000e+00,9.958700000000000330e-01,3.000000000000000000e+01,2.202000000000000000e+03
2.000000000000000000e+00,7.355899999999999661e-01,3.000000000000000000e+01,2.205000000000000000e+03
2.000000000000000000e+00,4.809700000000000086e-01,3.000000000000000000e+01,2.213000000000000000e+03
2.000000000000000000e+00,7.957699999999999774e-01,3.000000000000000000e+01,2.214000000000000000e+03
2.000000000000000000e+00,8.395799999999999930e-01,3.000000000000000000e+01,2.228000000000000000e+03
2.000000000000000000e+00,6.093699999999999672e-01,3.000000000000000000e+01,2.232000000000000000e+03
2.000000000000000000e+00,6.450399999999999467e-01,6.000000000000000000e+01,2.233000000000000000e+03
2.000000000000000000e+00,9.368699999999999806e-01,3.000000000000000000e+01,2.235000000000000000e+03
2.000000000000000000e+00,6.248700000000000365e-01,3.000000000000000000e+01,2.242000000000000000e+03
2.000000000000000000e+00,5.630399999999999849e-01,2.026000000000000156e+01,2.247000000000000000e+03
2.000000000000000000e+00,7.407599999999999740e-01,3.000000000000000000e+01,2.248000000000000000e+03
2.000000000000000000e+00,9.487799999999999567e-01,3.000000000000000000e+01,2.254000000000000000e+03
2.000000000000000000e+00,8.207600000000000451e-01,3.000000000000000000e+01,2.257000000000000000e+03
2.000000000000000000e+00,7.318099999999999605e-01,6.000000000000000000e+01,2.265000000000000000e+03
2.000000000000000000e+00,7.573699999999999877e-01,3.000000000000000000e+01,2.270000000000000000e+03
2.000000000000000000e+00,8.856399999999999828e-01,3.000000000000000000e+01,2.278000000000000000e+03
2.000000000000000000e+00,4.858799999999999786e-01,3.000000000000000000e+01,2.294000000000000000e+03
2.000000000000000000e+00,8.007300000000000528e-01,3.000000000000000000e+01,2.295000000000000000e+03
2.000000000000000000e+00,6.585499999999999687e-01,3.000000000000000000e+01,2.296000000000000000e+03
2.000000000000000000e+00,4.577100000000000057e-01,3.000000000000000000e+01,2.301000000000000000e+03
2.000000000000000000e+00,6.399500000000000188e-01,3.000000000000000000e+01,2.302000000000000000e+03
2.000000000000000000e+00,7.691900000000000404e-01,3.000000000000000000e+01,2.311000000000000000e+03
2.000000000000000000e+00,8.545000000000000373e-01,3.000000000000000000e+01,2.314000000000000000e+03
2.000000000000000000e+00,9.928399999999999448e-01,3.000000000000000000e+01,2.316000000000000000e+03
2.000000000000000000e+00,5.719100000000000295e-01,3.000000000000000000e+01,2.318000000000000000e+03
2.000000000000000000e+00,5.894899999999999585e-01,6.000000000000000000e+01,2.320000000000000000e+03
2.000000000000000000e+00,8.760700000000000154e-01,3.000000000000000000e+01,2.334000000000000000e+03
2.000000000000000000e+00,7.935600000000000431e-01,3.000000000000000000e+01,2.337000000000000000e+03
2.000000000000000000e+00,8.989399999999999613e-01,3.000000000000000000e+01,2.348000000000000000e+03
2.000000000000000000e+00,8.340899999999999981e-01,3.000000000000000000e+01,2.361000000000000000e+03
2.000000000000000000e+00,8.501800000000000468e-01,3.000000000000000000e+01,2.370000000000000000e+03
2.000000000000000000e+00,7.029699999999999838e-01,3.000000000000000000e+01,2.387000000000000000e+03
2.000000000000000000e+00,8.417999999999999927e-01,3.000000000000000000e+01,2.392000000000000000e+03
2.000000000000000000e+00,6.358099999999999863e-01,6.000000000000000000e+01,2.396000000000000000e+03
2.000000000000000000e+00,8.145599999999999508e-01,3.000000000000000000e+01,2.399000000000000000e+03
2.000000000000000000e+00,5.109799999999999898e-01,6.000000000000000000e+01,2.408000000000000000e+03
2.000000000000000000e+00,6.141600000000000392e-01,3.000000000000000000e+01,2.409000000000000000e+03
2.000000000000000000e+00,6.655600000000000405e-01,3.000000000000000000e+01,2.423000000000000000e+03
2.000000000000000000e+00,6.233699999999999797e-01,3.000000000000000000e+01,2.428000000000000000e+03
2.000000000000000000e+00,7.254399999999999737e-01,3.000000000000000000e+01,2.432000000000000000e+03
2.000000000000000000e+00,9.493599999999999817e-01,3.000000000000000000e+01,2.433000000000000000e+03
2.000000000000000000e+00,6.386100000000000110e-01,3.000000000000000000e+01,2.436000000000000000e+03
2.000000000000000000e+00,6.749899999999999789e-01,3.000000000000000000e+01,2.441000000000000000e+03
2.000000000000000000e+00,5.953699999999999548e-01,3.000000000000000000e+01,2.446000000000000000e+03
2.000000000000000000e+00,8.732499999999999707e-01,6.000000000000000000e+01,2.462000000000000000e+03
2.000000000000000000e+00,5.466699999999999893e-01,3.000000000000000000e+01,2.467000000000000000e+03
2.000000000000000000e+00,8.983200000000000074e-01,3.000000000000000000e+01,2.488000000000000000e+03
2.000000000000000000e+00,6.815200000000000147e-01,6.000000000000000000e+01,2.490000000000000000e+03
2.000000000000000000e+00,5.513599999999999612e-01,3.000000000000000000e+01,2.505000000000000000e+03
2.000000000000000000e+00,7.837100000000000177e-01,3.000000000000000000e+01,2.522000000000000000e+03
2.000000000000000000e+00,7.699099999999999833e-01,3.000000000000000000e+01,2.541000000000000000e+03
2.000000000000000000e+00,8.448700000000000099e-01,6.000000000000000000e+01,2.551000000000000000e+03
2.000000000000000000e+00,4.401700000000000057e-01,6.000000000000000000e+01,2.552000000000000000e+03
2.000000000000000000e+00,8.144299999999999873e-01,3.000000000000000000e+01,2.560000000000000000e+03
2.000000000000000000e+00,6.399599999999999733e-01,6.000000000000000000e+01,2.576000000000000000e+03
2.000000000000000000e+00,9.017699999999999605e-01,3.000000000000000000e+01,2.577000000000000000e+03
2.000000000000000000e+00,7.164700000000000513e-01,3.000000000000000000e+01,2.594000000000000000e+03
2.000000000000000000e+00,5.326400000000000023e-01,3.000000000000000000e+01,2.601000000000000000e+03
2.000000000000000000e+00,8.735300000000000287e-01,3.000000000000000000e+01,2.602000000000000000e+03
2.000000000000000000e+00,6.448399999999999688e-01,3.000000000000000000e+01,2.615000000000000000e+03
2.000000000000000000e+00,7.618399999999999617e-01,3.000000000000000000e+01,2.617000000000000000e+03
2.000000000000000000e+00,7.876699999999999813e-01,3.000000000000000000e+01,2.629000000000000000e+03
2.000000000000000000e+00,8.863199999999999967e-01,3.000000000000000000e+01,2.630000000000000000e+03
2.000000000000000000e+00,7.850599999999999801e-01,5.975999999999999801e+01,2.631000000000000000e+03
2.000000000000000000e+00,8.702900000000000080e-01,3.000000000000000000e+01,2.632000000000000000e+03
2.000000000000000000e+00,7.563900000000000068e-01,6.000000000000000000e+01,2.634000000000000000e+03
2.000000000000000000e+00,7.721599999999999575e-01,6.000000000000000000e+01,2.636000000000000000e+03
2.000000000000000000e+00,8.360999999999999543e-01,3.000000000000000000e+01,2.650000000000000000e+03
2.000000000000000000e+00,6.841199999999999504e-01,3.000000000000000000e+01,2.654000000000000000e+03
2.000000000000000000e+00,6.209400000000000475e-01,3.000000000000000000e+01,2.658000000000000000e+03
2.000000000000000000e+00,6.449799999999999978e-01,3.000000000000000000e+01,2.676000000000000000e+03
2.000000000000000000e+00,4.623800000000000132e-01,3.000000000000000000e+01,2.680000000000000000e+03
2.000000000000000000e+00,8.486099999999999755e-01,3.000000000000000000e+01,2.683000000000000000e+03
2.000000000000000000e+00,9.400800000000000267e-01,3.000000000000000000e+01,2.685000000000000000e+03
2.000000000000000000e+00,6.770300000000000207e-01,6.000000000000000000e+01,2.687000000000000000e+03
2.000000000000000000e+00,7.057700000000000085e-01,3.000000000000000000e+01,2.690000000000000000e+03
2.000000000000000000e+00,5.951699999999999768e-01,6.000000000000000000e+01,2.696000000000000000e+03
2.000000000000000000e+00,9.912199999999999900e-01,3.000000000000000000e+01,2.697000000000000000e+03
2.000000000000000000e+00,5.395199999999999996e-01,3.000000000000000000e+01,2.699000000000000000e+03
2.000000000000000000e+00,8.225799999999999779e-01,3.000000000000000000e+01,2.701000000000000000e+03
2.000000000000000000e+00,9.080000000000000293e-01,3.000000000000000000e+01,2.704000000000000000e+03
2.000000000000000000e+00,8.431100000000000261e-01,6.000000000000000000e+01,2.705000000000000000e+03
2.000000000000000000e+00,8.218499999999999694e-01,3.000000000000000000e+01,2.708000000000000000e+03
2.000000000000000000e+00,7.153500000000000414e-01,3.000000000000000000e+01,2.709000000000000000e+03
2.000000000000000000e+00,7.874600000000000488e-01,1.767000000000000171e+01,2.719000000000000000e+03
2.000000000000000000e+00,7.052100000000000035e-01,6.000000000000000000e+01,2.724000000000000000e+03
2.000000000000000000e+00,6.686999999999999611e-01,3.000000000000000000e+01,2.734000000000000000e+03
2.000000000000000000e+00,7.183500000000000441e-01,3.000000000000000000e+01,2.747000000000000000e+03
2.000000000000000000e+00,9.851199999999999957e-01,3.000000000000000000e+01,2.748000000000000000e+03
2.000000000000000000e+00,6.700199999999999489e-01,3.000000000000000000e+01,2.771000000000000000e+03
2.000000000000000000e+00,4.965399999999999814e-01,3.000000000000000000e+01,2.775000000000000000e+03
2.000000000000000000e+00,9.719299999999999606e-01,5.954999999999999716e+01,2.780000000000000000e+03
2.000000000000000000e+00,8.365500000000000158e-01,6.000000000000000000e+01,2.787000000000000000e+03
2.000000000000000000e+00,6.131999999999999673e-01,6.000000000000000000e+01,2.791000000000000000e+03
2.000000000000000000e+00,5.850199999999999845e-01,3.000000000000000000e+01,2.792000000000000000e+03
2.000000000000000000e+00,9.582899999999999752e-01,3.000000000000000000e+01,2.798000000000000000e+03
2.000000000000000000e+00,9.503899999999999570e-01,6.000000000000000000e+01,2.801000000000000000e+03
2.000000000000000000e+00,5.470300000000000162e-01,3.000000000000000000e+01,2.802000000000000000e+03
2.000000000000000000e+00,6.131199999999999983e-01,3.000000000000000000e+01,2.804000000000000000e+03
2.000000000000000000e+00,5.387399999999999967e-01,3.000000000000000000e+01,2.806000000000000000e+03
2.000000000000000000e+00,5.597400000000000153e-01,6.000000000000000000e+01,2.810000000000000000e+03
2.000000000000000000e+00,8.814100000000000268e-01,3.000000000000000000e+01,2.818000000000000000e+03
2.000000000000000000e+00,9.033900000000000263e-01,6.042999999999999972e+01,2.826000000000000000e+03
2.000000000000000000e+00,7.785100000000000353e-01,3.000000000000000000e+01,2.827000000000000000e+03
2.000000000000000000e+00,8.147199999999999998e-01,3.000000000000000000e+01,2.828000000000000000e+03
2.000000000000000000e+00,8.169300000000000450e-01,3.000000000000000000e+01,2.830000000000000000e+03
2.000000000000000000e+00,7.772999999999999909e-01,3.000000000000000000e+01,2.834000000000000000e+03
2.000000000000000000e+00,7.477399999999999602e-01,3.000000000000000000e+01,2.835000000000000000e+03
2.000000000000000000e+00,7.495399999999999840e-01,3.000000000000000000e+01,2.840000000000000000e+03
2.000000000000000000e+00,5.661899999999999711e-01,3.000000000000000000e+01,2.841000000000000000e+03
2.000000000000000000e+00,6.572799999999999754e-01,6.000000000000000000e+01,2.844000000000000000e+03
2.000000000000000000e+00,7.912400000000000544e-01,2.792999999999999972e+01,2.852000000000000000e+03
2.000000000000000000e+00,8.502999999999999448e-01,3.000000000000000000e+01,2.854000000000000000e+03
2.000000000000000000e+00,5.225199999999999845e-01,3.000000000000000000e+01,2.859000000000000000e+03
2.000000000000000000e+00,7.248700000000000143e-01,6.000000000000000000e+01,2.867000000000000000e+03
2.000000000000000000e+00,9.454599999999999671e-01,3.000000000000000000e+01,2.870000000000000000e+03
2.000000000000000000e+00,6.579199999999999493e-01,3.000000000000000000e+01,2.881000000000000000e+03
2.000000000000000000e+00,9.498999999999999666e-01,6.000000000000000000e+01,2.883000000000000000e+03
2.000000000000000000e+00,6.614799999999999569e-01,6.000000000000000000e+01,2.889000000000000000e+03
2.000000000000000000e+00,8.059600000000000097e-01,3.000000000000000000e+01,2.911000000000000000e+03
2.000000000000000000e+00,8.837399999999999700e-01,3.000000000000000000e+01,2.912000000000000000e+03
2.000000000000000000e+00,8.919899999999999496e-01,6.000000000000000000e+01,2.915000000000000000e+03
2.000000000000000000e+00,5.617799999999999461e-01,3.000000000000000000e+01,2.932000000000000000e+03
2.000000000000000000e+00,7.016599999999999504e-01,6.000000000000000000e+01,2.934000000000000000e+03
2.000000000000000000e+00,7.869399999999999729e-01,3.000000000000000000e+01,2.948000000000000000e+03
2.000000000000000000e+00,7.385699999999999488e-01,3.000000000000000000e+01,2.974000000000000000e+03
2.000000000000000000e+00,6.453400000000000247e-01,3.000000000000000000e+01,2.976000000000000000e+03
2.000000000000000000e+00,7.014599999999999724e-01,3.000000000000000000e+01,2.980000000000000000e+03
2.000000000000000000e+00,5.160599999999999632e-01,3.000000000000000000e+01,2.984000000000000000e+03
2.000000000000000000e+00,5.486199999999999966e-01,3.000000000000000000e+01,2.988000000000000000e+03
2.000000000000000000e+00,5.480099999999999971e-01,3.000000000000000000e+01,2.993000000000000000e+03
2.000000000000000000e+00,6.627600000000000158e-01,3.000000000000000000e+01,2.995000000000000000e+03
2.000000000000000000e+00,7.534899999999999931e-01,3.000000000000000000e+01,2.999000000000000000e+03
2.000000000000000000e+00,6.680599999999999872e-01,3.000000000000000000e+01,3.001000000000000000e+03
2.000000000000000000e+00,8.262300000000000200e-01,3.000000000000000000e+01,3.005000000000000000e+03
2.000000000000000000e+00,5.225899999999999990e-01,6.000000000000000000e+01,3.006000000000000000e+03
2.000000000000000000e+00,3.940899999999999959e-01,3.000000000000000000e+01,3.010000000000000000e+03
2.000000000000000000e+00,9.500899999999999901e-01,3.000000000000000000e+01,3.015000000000000000e+03
2.000000000000000000e+00,6.791700000000000514e-01,3.000000000000000000e+01,3.016000000000000000e+03
2.000000000000000000e+00,7.726499999999999480e-01,6.000000000000000000e+01,3.021000000000000000e+03
2.000000000000000000e+00,4.661899999999999933e-01,3.000000000000000000e+01,3.026000000000000000e+03
2.000000000000000000e+00,5.481599999999999806e-01,3.000000000000000000e+01,3.047000000000000000e+03
2.000000000000000000e+00,9.160700000000000509e-01,3.000000000000000000e+01,3.064000000000000000e+03
2.000000000000000000e+00,6.751700000000000479e-01,3.000000000000000000e+01,3.076000000000000000e+03
2.000000000000000000e+00,5.798499999999999766e-01,6.000000000000000000e+01,3.079000000000000000e+03
2.000000000000000000e+00,7.182500000000000551e-01,3.000000000000000000e+01,3.082000000000000000e+03
2.000000000000000000e+00,9.767099999999999671e-01,2.823999999999999844e+01,3.083000000000000000e+03
2.000000000000000000e+00,6.775299999999999656e-01,3.000000000000000000e+01,3.087000000000000000e+03
2.000000000000000000e+00,5.179899999999999505e-01,2.448999999999999844e+01,3.090000000000000000e+03
2.000000000000000000e+00,7.195300000000000029e-01,3.000000000000000000e+01,3.110000000000000000e+03
2.000000000000000000e+00,8.427999999999999936e-01,3.000000000000000000e+01,3.112000000000000000e+03
2.000000000000000000e+00,8.064799999999999747e-01,3.000000000000000000e+01,3.116000000000000000e+03
2.000000000000000000e+00,6.203699999999999770e-01,3.000000000000000000e+01,3.127000000000000000e+03
2.000000000000000000e+00,5.887900000000000356e-01,3.000000000000000000e+01,3.137000000000000000e+03
2.000000000000000000e+00,5.656400000000000317e-01,3.000000000000000000e+01,3.142000000000000000e+03
2.000000000000000000e+00,9.590699999999999781e-01,3.000000000000000000e+01,3.148000000000000000e+03
2.000000000000000000e+00,5.593200000000000394e-01,3.000000000000000000e+01,3.156000000000000000e+03
2.000000000000000000e+00,8.022799999999999931e-01,6.000000000000000000e+01,3.181000000000000000e+03
2.000000000000000000e+00,6.863099999999999756e-01,3.000000000000000000e+01,3.210000000000000000e+03
2.000000000000000000e+00,7.147499999999999964e-01,6.000000000000000000e+01,3.216000000000000000e+03
2.000000000000000000e+00,7.398799999999999821e-01,3.000000000000000000e+01,3.220000000000000000e+03
2.000000000000000000e+00,3.515300000000000091e-01,3.000000000000000000e+01,3.225000000000000000e+03
2.000000000000000000e+00,8.956499999999999462e-01,6.000000000000000000e+01,3.228000000000000000e+03
2.000000000000000000e+00,9.367400000000000171e-01,3.000000000000000000e+01,3.229000000000000000e+03
2.000000000000000000e+00,7.733700000000000019e-01,6.000000000000000000e+01,3.233000000000000000e+03
2.000000000000000000e+00,6.763200000000000323e-01,3.000000000000000000e+01,3.245000000000000000e+03
2.000000000000000000e+00,7.193699999999999539e-01,3.000000000000000000e+01,3.251000000000000000e+03
2.000000000000000000e+00,8.517799999999999816e-01,3.000000000000000000e+01,3.254000000000000000e+03
2.000000000000000000e+00,7.785600000000000298e-01,6.000000000000000000e+01,3.258000000000000000e+03
2.000000000000000000e+00,8.139499999999999513e-01,3.000000000000000000e+01,3.262000000000000000e+03
2.000000000000000000e+00,7.822099999999999609e-01,3.000000000000000000e+01,3.266000000000000000e+03
2.000000000000000000e+00,6.563400000000000345e-01,3.000000000000000000e+01,3.271000000000000000e+03
2.000000000000000000e+00,8.596300000000000052e-01,3.000000000000000000e+01,3.278000000000000000e+03
2.000000000000000000e+00,6.957100000000000506e-01,3.000000000000000000e+01,3.283000000000000000e+03
2.000000000000000000e+00,9.076899999999999968e-01,3.000000000000000000e+01,3.287000000000000000e+03
2.000000000000000000e+00,8.433300000000000241e-01,6.000000000000000000e+01,3.290000000000000000e+03
2.000000000000000000e+00,8.943699999999999983e-01,3.000000000000000000e+01,3.294000000000000000e+03
2.000000000000000000e+00,9.390500000000000513e-01,3.000000000000000000e+01,3.308000000000000000e+03
2.000000000000000000e+00,8.998300000000000187e-01,3.000000000000000000e+01,3.309000000000000000e+03
2.000000000000000000e+00,7.008100000000000440e-01,3.000000000000000000e+01,3.316000000000000000e+03
2.000000000000000000e+00,7.334500000000000464e-01,3.000000000000000000e+01,3.324000000000000000e+03
2.000000000000000000e+00,5.122600000000000486e-01,6.000000000000000000e+01,3.329000000000000000e+03
2.000000000000000000e+00,7.000899999999999901e-01,3.000000000000000000e+01,3.330000000000000000e+03
2.000000000000000000e+00,8.313800000000000079e-01,3.000000000000000000e+01,3.333000000000000000e+03
2.000000000000000000e+00,5.080200000000000271e-01,1.515000000000000036e+01,3.339000000000000000e+03
2.000000000000000000e+00,4.512200000000000100e-01,3.000000000000000000e+01,3.341000000000000000e+03
2.000000000000000000e+00,6.749800000000000244e-01,3.000000000000000000e+01,3.354000000000000000e+03
2.000000000000000000e+00,9.335599999999999454e-01,3.000000000000000000e+01,3.368000000000000000e+03
2.000000000000000000e+00,9.328400000000000025e-01,3.000000000000000000e+01,3.370000000000000000e+03
2.000000000000000000e+00,9.072000000000000064e-01,4.170000000000000284e+01,3.373000000000000000e+03
2.000000000000000000e+00,8.071300000000000141e-01,3.000000000000000000e+01,3.374000000000000000e+03
2.000000000000000000e+00,6.550200000000000466e-01,3.000000000000000000e+01,3.392000000000000000e+03
2.000000000000000000e+00,7.528399999999999537e-01,3.000000000000000000e+01,3.410000000000000000e+03
2.000000000000000000e+00,8.012899999999999467e-01,6.000000000000000000e+01,3.417000000000000000e+03
2.000000000000000000e+00,8.466599999999999682e-01,3.000000000000000000e+01,3.424000000000000000e+03
2.000000000000000000e+00,7.233600000000000030e-01,6.000000000000000000e+01,3.427000000000000000e+03
2.000000000000000000e+00,9.177699999999999747e-01,6.000000000000000000e+01,3.436000000000000000e+03
2.000000000000000000e+00,7.418400000000000549e-01,3.000000000000000000e+01,3.439000000000000000e+03
2.000000000000000000e+00,7.769099999999999895e-01,3.000000000000000000e+01,3.461000000000000000e+03
2.000000000000000000e+00,9.304099999999999593e-01,3.000000000000000000e+01,3.463000000000000000e+03
2.000000000000000000e+00,6.800899999999999723e-01,3.000000000000000000e+01,3.464000000000000000e+03
2.000000000000000000e+00,5.280299999999999994e-01,3.000000000000000000e+01,3.474000000000000000e+03
2.000000000000000000e+00,7.339700000000000113e-01,3.000000000000000000e+01,3.493000000000000000e+03
2.000000000000000000e+00,5.041499999999999870e-01,4.117000000000000171e+01,3.496000000000000000e+03
2.000000000000000000e+00,9.366400000000000281e-01,3.000000000000000000e+01,3.500000000000000000e+03
2.000000000000000000e+00,8.433300000000000241e-01,6.000000000000000000e+01,3.506000000000000000e+03
2.000000000000000000e+00,9.328499999999999570e-01,3.000000000000000000e+01,3.513000000000000000e+03
2.000000000000000000e+00,7.351299999999999502e-01,3.000000000000000000e+01,3.514000000000000000e+03
2.000000000000000000e+00,8.404399999999999649e-01,3.000000000000000000e+01,3.516000000000000000e+03
2.000000000000000000e+00,9.150399999999999645e-01,3.000000000000000000e+01,3.517000000000000000e+03
2.000000000000000000e+00,8.064500000000000002e-01,3.000000000000000000e+01,3.521000000000000000e+03
2.000000000000000000e+00,8.372699999999999587e-01,3.000000000000000000e+01,3.537000000000000000e+03
2.000000000000000000e+00,8.551499999999999657e-01,3.000000000000000000e+01,3.539000000000000000e+03
2.000000000000000000e+00,6.780599999999999961e-01,3.000000000000000000e+01,3.540000000000000000e+03
2.000000000000000000e+00,6.049499999999999877e-01,3.000000000000000000e+01,3.546000000000000000e+03
2.000000000000000000e+00,7.289099999999999469e-01,6.000000000000000000e+01,3.556000000000000000e+03
2.000000000000000000e+00,8.341699999999999671e-01,3.000000000000000000e+01,3.575000000000000000e+03
2.000000000000000000e+00,8.487500000000000044e-01,3.000000000000000000e+01,3.577000000000000000e+03
2.000000000000000000e+00,6.470000000000000195e-01,6.000000000000000000e+01,3.578000000000000000e+03
2.000000000000000000e+00,7.757199999999999651e-01,3.000000000000000000e+01,3.583000000000000000e+03
2.000000000000000000e+00,8.390600000000000280e-01,3.000000000000000000e+01,3.591000000000000000e+03
2.000000000000000000e+00,6.330999999999999961e-01,3.000000000000000000e+01,3.597000000000000000e+03
2.000000000000000000e+00,8.091599999999999904e-01,6.000000000000000000e+01,3.601000000000000000e+03
2.000000000000000000e+00,6.986200000000000188e-01,3.000000000000000000e+01,3.609000000000000000e+03
2.000000000000000000e+00,8.652699999999999836e-01,3.000000000000000000e+01,3.612000000000000000e+03
2.000000000000000000e+00,8.333300000000000152e-01,6.000000000000000000e+01,3.615000000000000000e+03
2.000000000000000000e+00,7.402199999999999891e-01,3.000000000000000000e+01,3.616000000000000000e+03
2.000000000000000000e+00,8.465599999999999792e-01,3.000000000000000000e+01,3.619000000000000000e+03
2.000000000000000000e+00,8.538900000000000379e-01,3.000000000000000000e+01,3.621000000000000000e+03
2.000000000000000000e+00,8.785100000000000131e-01,3.000000000000000000e+01,3.624000000000000000e+03
2.000000000000000000e+00,8.597099999999999742e-01,3.000000000000000000e+01,3.630000000000000000e+03
2.000000000000000000e+00,5.311900000000000510e-01,6.000000000000000000e+01,3.640000000000000000e+03
2.000000000000000000e+00,7.228400000000000380e-01,3.000000000000000000e+01,3.643000000000000000e+03
2.000000000000000000e+00,7.209100000000000508e-01,3.000000000000000000e+01,3.653000000000000000e+03
2.000000000000000000e+00,8.810900000000000398e-01,6.000000000000000000e+01,3.661000000000000000e+03
2.000000000000000000e+00,7.219400000000000261e-01,3.000000000000000000e+01,3.664000000000000000e+03
2.000000000000000000e+00,6.538599999999999968e-01,3.000000000000000000e+01,3.667000000000000000e+03
2.000000000000000000e+00,7.038299999999999557e-01,3.000000000000000000e+01,3.669000000000000000e+03
2.000000000000000000e+00,9.956500000000000350e-01,3.000000000000000000e+01,3.683000000000000000e+03
2.000000000000000000e+00,7.776999999999999469e-01,3.000000000000000000e+01,3.687000000000000000e+03
2.000000000000000000e+00,9.007699999999999596e-01,6.000000000000000000e+01,3.696000000000000000e+03
2.000000000000000000e+00,7.937199999999999811e-01,3.000000000000000000e+01,3.701000000000000000e+03
2.000000000000000000e+00,5.137000000000000455e-01,6.000000000000000000e+01,3.708000000000000000e+03
2.000000000000000000e+00,5.665599999999999525e-01,3.000000000000000000e+01,3.717000000000000000e+03
2.000000000000000000e+00,5.989200000000000079e-01,3.000000000000000000e+01,3.721000000000000000e+03
2.000000000000000000e+00,8.202700000000000546e-01,3.000000000000000000e+01,3.724000000000000000e+03
2.000000000000000000e+00,4.622499999999999942e-01,3.000000000000000000e+01,3.725000000000000000e+03
2.000000000000000000e+00,9.024999999999999689e-01,6.000000000000000000e+01,3.730000000000000000e+03
2.000000000000000000e+00,7.386099999999999888e-01,3.000000000000000000e+01,3.736000000000000000e+03
2.000000000000000000e+00,7.082300000000000262e-01,3.000000000000000000e+01,3.742000000000000000e+03
2.000000000000000000e+00,8.557200000000000362e-01,6.000000000000000000e+01,3.752000000000000000e+03
2.000000000000000000e+00,7.897300000000000431e-01,5.995000000000000284e+01,3.756000000000000000e+03
2.000000000000000000e+00,5.818699999999999983e-01,3.000000000000000000e+01,3.763000000000000000e+03
2.000000000000000000e+00,7.114099999999999868e-01,3.000000000000000000e+01,3.766000000000000000e+03
2.000000000000000000e+00,6.098799999999999777e-01,3.000000000000000000e+01,3.771000000000000000e+03
2.000000000000000000e+00,8.097600000000000353e-01,3.000000000000000000e+01,3.773000000000000000e+03
2.000000000000000000e+00,8.164400000000000546e-01,3.000000000000000000e+01,3.775000000000000000e+03
2.000000000000000000e+00,3.778099999999999792e-01,1.491000000000000014e+01,3.781000000000000000e+03
2.000000000000000000e+00,7.171499999999999542e-01,3.000000000000000000e+01,3.789000000000000000e+03
2.000000000000000000e+00,6.850000000000000533e-01,3.000000000000000000e+01,3.793000000000000000e+03
2.000000000000000000e+00,8.131899999999999684e-01,3.000000000000000000e+01,3.802000000000000000e+03
2.000000000000000000e+00,7.130600000000000271e-01,6.000000000000000000e+01,3.805000000000000000e+03
2.000000000000000000e+00,5.842399999999999816e-01,3.000000000000000000e+01,3.807000000000000000e+03
2.000000000000000000e+00,7.083199999999999497e-01,3.000000000000000000e+01,3.808000000000000000e+03
2.000000000000000000e+00,8.697899999999999521e-01,3.000000000000000000e+01,3.817000000000000000e+03
2.000000000000000000e+00,8.214599999999999680e-01,3.000000000000000000e+01,3.820000000000000000e+03
2.000000000000000000e+00,6.782200000000000450e-01,3.000000000000000000e+01,3.822000000000000000e+03
2.000000000000000000e+00,7.874299999999999633e-01,3.000000000000000000e+01,3.826000000000000000e+03
2.000000000000000000e+00,7.549700000000000299e-01,6.000000000000000000e+01,3.831000000000000000e+03
2.000000000000000000e+00,4.614300000000000068e-01,1.691000000000000014e+01,3.847000000000000000e+03
2.000000000000000000e+00,9.575099999999999723e-01,3.000000000000000000e+01,3.849000000000000000e+03
2.000000000000000000e+00,7.104399999999999604e-01,3.000000000000000000e+01,3.851000000000000000e+03
2.000000000000000000e+00,6.879100000000000215e-01,3.000000000000000000e+01,3.869000000000000000e+03
2.000000000000000000e+00,9.518400000000000194e-01,3.000000000000000000e+01,3.879000000000000000e+03
2.000000000000000000e+00,9.569900000000000073e-01,6.000000000000000000e+01,3.890000000000000000e+03
2.000000000000000000e+00,7.276200000000000445e-01,6.000000000000000000e+01,3.904000000000000000e+03
2.000000000000000000e+00,6.444199999999999928e-01,3.000000000000000000e+01,3.919000000000000000e+03
2.000000000000000000e+00,5.095300000000000384e-01,3.000000000000000000e+01,3.920000000000000000e+03
2.000000000000000000e+00,9.253000000000000114e-01,3.000000000000000000e+01,3.924000000000000000e+03
2.000000000000000000e+00,7.325399999999999689e-01,3.000000000000000000e+01,3.931000000000000000e+03
2.000000000000000000e+00,7.390799999999999592e-01,3.000000000000000000e+01,3.938000000000000000e+03
2.000000000000000000e+00,6.822799999999999976e-01,3.000000000000000000e+01,3.944000000000000000e+03
2.000000000000000000e+00,5.406199999999999894e-01,3.000000000000000000e+01,3.959000000000000000e+03
2.000000000000000000e+00,9.465500000000000025e-01,3.000000000000000000e+01,3.969000000000000000e+03
2.000000000000000000e+00,7.275000000000000355e-01,6.000000000000000000e+01,3.976000000000000000e+03
2.000000000000000000e+00,3.819299999999999917e-01,3.000000000000000000e+01,3.977000000000000000e+03
2.000000000000000000e+00,6.310200000000000253e-01,2.358999999999999986e+01,3.994000000000000000e+03
2.000000000000000000e+00,8.718799999999999883e-01,3.000000000000000000e+01,4.001000000000000000e+03
2.000000000000000000e+00,7.567800000000000082e-01,3.000000000000000000e+01,4.002000000000000000e+03
2.000000000000000000e+00,9.358899999999999997e-01,3.000000000000000000e+01,4.005000000000000000e+03
2.000000000000000000e+00,8.135099999999999554e-01,3.000000000000000000e+01,4.013000000000000000e+03
2.000000000000000000e+00,6.698199999999999710e-01,2.839000000000000057e+01,4.014000000000000000e+03
2.000000000000000000e+00,6.841599999999999904e-01,3.000000000000000000e+01,4.018000000000000000e+03
2.000000000000000000e+00,8.234799999999999898e-01,3.000000000000000000e+01,4.021000000000000000e+03
2.000000000000000000e+00,5.947000000000000064e-01,3.000000000000000000e+01,4.031000000000000000e+03
2.000000000000000000e+00,9.476499999999999924e-01,3.000000000000000000e+01,4.038000000000000000e+03
2.000000000000000000e+00,4.921200000000000019e-01,3.000000000000000000e+01,4.047000000000000000e+03
2.000000000000000000e+00,8.347400000000000375e-01,3.000000000000000000e+01,4.049000000000000000e+03
2.000000000000000000e+00,8.506799999999999917e-01,3.000000000000000000e+01,4.052000000000000000e+03
2.000000000000000000e+00,7.775400000000000089e-01,3.000000000000000000e+01,4.055000000000000000e+03
2.000000000000000000e+00,8.271500000000000519e-01,3.000000000000000000e+01,4.057000000000000000e+03
2.000000000000000000e+00,3.998800000000000132e-01,3.000000000000000000e+01,4.062000000000000000e+03
2.000000000000000000e+00,7.650900000000000478e-01,3.000000000000000000e+01,4.063000000000000000e+03
2.000000000000000000e+00,5.353299999999999725e-01,2.094000000000000128e+01,4.078000000000000000e+03
2.000000000000000000e+00,7.561400000000000343e-01,5.649000000000000199e+01,4.081000000000000000e+03
2.000000000000000000e+00,7.342499999999999583e-01,6.000000000000000000e+01,4.096000000000000000e+03
2.000000000000000000e+00,6.585999999999999632e-01,3.000000000000000000e+01,4.098000000000000000e+03
2.000000000000000000e+00,7.087200000000000166e-01,3.000000000000000000e+01,4.103000000000000000e+03
2.000000000000000000e+00,7.046999999999999931e-01,3.000000000000000000e+01,4.108000000000000000e+03
2.000000000000000000e+00,8.735699999999999577e-01,4.717000000000000171e+01,4.109000000000000000e+03
2.000000000000000000e+00,6.646600000000000286e-01,3.000000000000000000e+01,4.113000000000000000e+03
2.000000000000000000e+00,5.774599999999999733e-01,3.000000000000000000e+01,4.129000000000000000e+03
2.000000000000000000e+00,8.589499999999999913e-01,2.553999999999999915e+01,4.135000000000000000e+03
2.000000000000000000e+00,7.057400000000000340e-01,3.000000000000000000e+01,4.150000000000000000e+03
2.000000000000000000e+00,8.705199999999999605e-01,3.000000000000000000e+01,4.173000000000000000e+03
2.000000000000000000e+00,6.067399999999999460e-01,3.000000000000000000e+01,4.175000000000000000e+03
2.000000000000000000e+00,4.198999999999999955e-01,3.000000000000000000e+01,4.176000000000000000e+03
2.000000000000000000e+00,5.419800000000000173e-01,3.000000000000000000e+01,4.184000000000000000e+03
2.000000000000000000e+00,8.105200000000000182e-01,3.000000000000000000e+01,4.185000000000000000e+03
2.000000000000000000e+00,9.032099999999999573e-01,3.000000000000000000e+01,4.195000000000000000e+03
2.000000000000000000e+00,6.866400000000000281e-01,3.000000000000000000e+01,4.198000000000000000e+03
2.000000000000000000e+00,7.313499999999999446e-01,3.000000000000000000e+01,4.209000000000000000e+03
2.000000000000000000e+00,8.206799999999999651e-01,3.000000000000000000e+01,4.214000000000000000e+03
2.000000000000000000e+00,7.021899999999999809e-01,3.000000000000000000e+01,4.215000000000000000e+03
2.000000000000000000e+00,4.342599999999999794e-01,3.000000000000000000e+01,4.222000000000000000e+03
2.000000000000000000e+00,6.394300000000000539e-01,3.000000000000000000e+01,4.227000000000000000e+03
2.000000000000000000e+00,8.973100000000000520e-01,3.000000000000000000e+01,4.228000000000000000e+03
2.000000000000000000e+00,6.012899999999999912e-01,6.000000000000000000e+01,4.232000000000000000e+03
2.000000000000000000e+00,7.947699999999999765e-01,3.000000000000000000e+01,4.238000000000000000e+03
2.000000000000000000e+00,9.027399999999999869e-01,3.000000000000000000e+01,4.240000000000000000e+03
2.000000000000000000e+00,7.510099999999999554e-01,3.000000000000000000e+01,4.242000000000000000e+03
2.000000000000000000e+00,7.637100000000000000e-01,3.000000000000000000e+01,4.249000000000000000e+03
2.000000000000000000e+00,5.225699999999999790e-01,6.000000000000000000e+01,4.250000000000000000e+03
2.000000000000000000e+00,5.283999999999999808e-01,4.659000000000000341e+01,4.252000000000000000e+03
2.000000000000000000e+00,6.677699999999999747e-01,3.000000000000000000e+01,4.261000000000000000e+03
2.000000000000000000e+00,8.981500000000000039e-01,3.000000000000000000e+01,4.268000000000000000e+03
2.000000000000000000e+00,9.574000000000000288e-01,3.000000000000000000e+01,4.271000000000000000e+03
2.000000000000000000e+00,4.645299999999999985e-01,3.000000000000000000e+01,4.279000000000000000e+03
2.000000000000000000e+00,8.776300000000000212e-01,3.759000000000000341e+01,4.284000000000000000e+03
2.000000000000000000e+00,8.360499999999999599e-01,3.000000000000000000e+01,4.288000000000000000e+03
2.000000000000000000e+00,4.481899999999999773e-01,3.000000000000000000e+01,4.293000000000000000e+03
2.000000000000000000e+00,4.602899999999999769e-01,3.000000000000000000e+01,4.296000000000000000e+03
2.000000000000000000e+00,4.002399999999999847e-01,2.558999999999999986e+01,4.308000000000000000e+03
2.000000000000000000e+00,8.327900000000000302e-01,3.000000000000000000e+01,4.309000000000000000e+03
2.000000000000000000e+00,7.438599999999999657e-01,3.000000000000000000e+01,4.315000000000000000e+03
2.000000000000000000e+00,7.081399999999999917e-01,3.000000000000000000e+01,4.316000000000000000e+03
2.000000000000000000e+00,5.202400000000000357e-01,3.000000000000000000e+01,4.318000000000000000e+03
2.000000000000000000e+00,8.110199999999999632e-01,3.000000000000000000e+01,4.324000000000000000e+03
2.000000000000000000e+00,8.983799999999999564e-01,3.000000000000000000e+01,4.331000000000000000e+03
2.000000000000000000e+00,7.190999999999999615e-01,5.078999999999999915e+01,4.335000000000000000e+03
2.000000000000000000e+00,7.459999999999999964e-01,3.000000000000000000e+01,4.345000000000000000e+03
2.000000000000000000e+00,7.297500000000000098e-01,3.000000000000000000e+01,4.346000000000000000e+03
2.000000000000000000e+00,6.532499999999999973e-01,3.000000000000000000e+01,4.356000000000000000e+03
2.000000000000000000e+00,4.277400000000000091e-01,3.000000000000000000e+01,4.357000000000000000e+03
2.000000000000000000e+00,5.997900000000000453e-01,3.000000000000000000e+01,4.360000000000000000e+03
2.000000000000000000e+00,4.338099999999999734e-01,1.532000000000000028e+01,4.361000000000000000e+03
2.000000000000000000e+00,6.069499999999999895e-01,3.000000000000000000e+01,4.362000000000000000e+03
2.000000000000000000e+00,6.635299999999999532e-01,4.482999999999999829e+01,4.363000000000000000e+03
2.000000000000000000e+00,7.928899999999999837e-01,6.000000000000000000e+01,4.365000000000000000e+03
2.000000000000000000e+00,7.318900000000000405e-01,3.985000000000000142e+01,4.370000000000000000e+03
2.000000000000000000e+00,8.665699999999999514e-01,6.000000000000000000e+01,4.374000000000000000e+03
2.000000000000000000e+00,4.802000000000000157e-01,2.053999999999999915e+01,4.386000000000000000e+03
2.000000000000000000e+00,5.374999999999999778e-01,3.000000000000000000e+01,4.387000000000000000e+03
2.000000000000000000e+00,5.750199999999999756e-01,6.000000000000000000e+01,4.400000000000000000e+03
2.000000000000000000e+00,6.603799999999999670e-01,3.000000000000000000e+01,4.407000000000000000e+03
2.000000000000000000e+00,7.719700000000000450e-01,3.000000000000000000e+01,4.414000000000000000e+03
2.000000000000000000e+00,7.394800000000000262e-01,3.000000000000000000e+01,4.415000000000000000e+03
2.000000000000000000e+00,8.136200000000000099e-01,6.000000000000000000e+01,4.417000000000000000e+03
2.000000000000000000e+00,7.633699999999999930e-01,3.000000000000000000e+01,4.421000000000000000e+03
2.000000000000000000e+00,8.923200000000000021e-01,3.000000000000000000e+01,4.428000000000000000e+03
2.000000000000000000e+00,7.774900000000000144e-01,6.004999999999999716e+01,4.429000000000000000e+03
2.000000000000000000e+00,8.826500000000000457e-01,3.000000000000000000e+01,4.433000000000000000e+03
2.000000000000000000e+00,8.418600000000000527e-01,3.000000000000000000e+01,4.440000000000000000e+03
2.000000000000000000e+00,8.469299999999999606e-01,3.000000000000000000e+01,4.441000000000000000e+03
2.000000000000000000e+00,7.866699999999999804e-01,3.000000000000000000e+01,4.443000000000000000e+03
2.000000000000000000e+00,6.538500000000000423e-01,3.000000000000000000e+01,4.451000000000000000e+03
2.000000000000000000e+00,8.346999999999999975e-01,3.000000000000000000e+01,4.466000000000000000e+03
2.000000000000000000e+00,7.610599999999999588e-01,3.000000000000000000e+01,4.470000000000000000e+03
2.000000000000000000e+00,6.167000000000000259e-01,3.000000000000000000e+01,4.471000000000000000e+03
2.000000000000000000e+00,5.355999999999999650e-01,6.000000000000000000e+01,4.476000000000000000e+03
2.000000000000000000e+00,6.629099999999999993e-01,3.000000000000000000e+01,4.491000000000000000e+03
2.000000000000000000e+00,6.056399999999999562e-01,3.000000000000000000e+01,4.494000000000000000e+03
2.000000000000000000e+00,8.681499999999999773e-01,6.000000000000000000e+01,4.496000000000000000e+03
2.000000000000000000e+00,8.922700000000000076e-01,3.000000000000000000e+01,4.509000000000000000e+03
2.000000000000000000e+00,7.717699999999999561e-01,3.000000000000000000e+01,4.512000000000000000e+03
2.000000000000000000e+00,8.784600000000000186e-01,3.000000000000000000e+01,4.514000000000000000e+03
2.000000000000000000e+00,8.374099999999999877e-01,3.000000000000000000e+01,4.519000000000000000e+03
2.000000000000000000e+00,5.035300000000000331e-01,3.000000000000000000e+01,4.521000000000000000e+03
2.000000000000000000e+00,6.393299999999999539e-01,2.275000000000000000e+01,4.524000000000000000e+03
2.000000000000000000e+00,8.243899999999999562e-01,3.000000000000000000e+01,4.527000000000000000e+03
2.000000000000000000e+00,5.772500000000000409e-01,3.000000000000000000e+01,4.529000000000000000e+03
2.000000000000000000e+00,8.723600000000000243e-01,4.813000000000000256e+01,4.531000000000000000e+03
2.000000000000000000e+00,6.653200000000000225e-01,3.000000000000000000e+01,4.539000000000000000e+03
2.000000000000000000e+00,7.127799999999999692e-01,3.000000000000000000e+01,4.541000000000000000e+03
2.000000000000000000e+00,5.097099999999999964e-01,6.000000000000000000e+01,4.544000000000000000e+03
2.000000000000000000e+00,6.454199999999999937e-01,3.000000000000000000e+01,4.545000000000000000e+03
2.000000000000000000e+00,7.478700000000000347e-01,3.000000000000000000e+01,4.550000000000000000e+03
2.000000000000000000e+00,9.615599999999999703e-01,4.754999999999999716e+01,4.557000000000000000e+03
2.000000000000000000e+00,6.981500000000000483e-01,3.000000000000000000e+01,4.566000000000000000e+03
2.000000000000000000e+00,5.530599999999999961e-01,3.000000000000000000e+01,4.569000000000000000e+03
2.000000000000000000e+00,8.903900000000000148e-01,6.000000000000000000e+01,4.571000000000000000e+03
2.000000000000000000e+00,4.851599999999999802e-01,3.000000000000000000e+01,4.574000000000000000e+03
2.000000000000000000e+00,5.364799999999999569e-01,3.000000000000000000e+01,4.575000000000000000e+03
2.000000000000000000e+00,9.200199999999999489e-01,3.000000000000000000e+01,4.576000000000000000e+03
2.000000000000000000e+00,5.394200000000000106e-01,6.000000000000000000e+01,4.586000000000000000e+03
2.000000000000000000e+00,8.485500000000000265e-01,6.000000000000000000e+01,4.588000000000000000e+03
2.000000000000000000e+00,4.855700000000000016e-01,2.725000000000000000e+01,4.621000000000000000e+03
2.000000000000000000e+00,7.444499999999999451e-01,6.000000000000000000e+01,4.635000000000000000e+03
2.000000000000000000e+00,5.386499999999999622e-01,6.000000000000000000e+01,4.652000000000000000e+03
2.000000000000000000e+00,6.386899999999999800e-01,3.000000000000000000e+01,4.653000000000000000e+03
2.000000000000000000e+00,7.137400000000000411e-01,3.000000000000000000e+01,4.661000000000000000e+03
2.000000000000000000e+00,7.158600000000000518e-01,6.000000000000000000e+01,4.674000000000000000e+03
2.000000000000000000e+00,8.088999999999999524e-01,3.000000000000000000e+01,4.678000000000000000e+03
2.000000000000000000e+00,5.321000000000000174e-01,6.000000000000000000e+01,4.682000000000000000e+03
2.000000000000000000e+00,9.466700000000000115e-01,3.000000000000000000e+01,4.715000000000000000e+03
2.000000000000000000e+00,8.549299999999999677e-01,3.000000000000000000e+01,4.719000000000000000e+03
2.000000000000000000e+00,6.158099999999999685e-01,6.000000000000000000e+01,4.722000000000000000e+03
2.000000000000000000e+00,9.096400000000000041e-01,3.000000000000000000e+01,4.723000000000000000e+03
2.000000000000000000e+00,5.624299999999999855e-01,6.000000000000000000e+01,4.729000000000000000e+03
2.000000000000000000e+00,5.740199999999999747e-01,3.000000000000000000e+01,4.732000000000000000e+03
2.000000000000000000e+00,5.318699999999999539e-01,3.000000000000000000e+01,4.738000000000000000e+03
2.000000000000000000e+00,8.489499999999999824e-01,3.000000000000000000e+01,4.741000000000000000e+03
2.000000000000000000e+00,6.932700000000000529e-01,3.000000000000000000e+01,4.745000000000000000e+03
2.000000000000000000e+00,9.853800000000000336e-01,3.000000000000000000e+01,4.750000000000000000e+03
2.000000000000000000e+00,9.254799999999999693e-01,3.000000000000000000e+01,4.753000000000000000e+03
2.000000000000000000e+00,7.880700000000000482e-01,3.000000000000000000e+01,4.763000000000000000e+03
2.000000000000000000e+00,9.355299999999999727e-01,3.000000000000000000e+01,4.780000000000000000e+03
2.000000000000000000e+00,7.665800000000000392e-01,3.000000000000000000e+01,4.783000000000000000e+03
2.000000000000000000e+00,4.910700000000000065e-01,3.000000000000000000e+01,4.803000000000000000e+03
2.000000000000000000e+00,7.760700000000000376e-01,3.000000000000000000e+01,4.820000000000000000e+03
2.000000000000000000e+00,8.248600000000000376e-01,3.000000000000000000e+01,4.828000000000000000e+03
2.000000000000000000e+00,7.088600000000000456e-01,3.000000000000000000e+01,4.829000000000000000e+03
2.000000000000000000e+00,7.045400000000000551e-01,2.844999999999999929e+01,4.830000000000000000e+03
2.000000000000000000e+00,7.145599999999999730e-01,3.000000000000000000e+01,4.832000000000000000e+03
2.000000000000000000e+00,9.612399999999999833e-01,3.000000000000000000e+01,4.838000000000000000e+03
2.000000000000000000e+00,7.211600000000000232e-01,3.000000000000000000e+01,4.840000000000000000e+03
2.000000000000000000e+00,6.812099999999999822e-01,3.000000000000000000e+01,4.844000000000000000e+03
2.000000000000000000e+00,9.099599999999999911e-01,3.000000000000000000e+01,4.846000000000000000e+03
2.000000000000000000e+00,7.064799999999999969e-01,3.000000000000000000e+01,4.858000000000000000e+03
2.000000000000000000e+00,7.459900000000000420e-01,3.000000000000000000e+01,4.862000000000000000e+03
2.000000000000000000e+00,7.738099999999999978e-01,3.000000000000000000e+01,4.863000000000000000e+03
2.000000000000000000e+00,7.781900000000000484e-01,3.000000000000000000e+01,4.867000000000000000e+03
2.000000000000000000e+00,7.914600000000000524e-01,3.000000000000000000e+01,4.872000000000000000e+03
2.000000000000000000e+00,6.748899999999999899e-01,6.000000000000000000e+01,4.875000000000000000e+03
2.000000000000000000e+00,8.695399999999999796e-01,3.000000000000000000e+01,4.877000000000000000e+03
2.000000000000000000e+00,6.972500000000000364e-01,3.000000000000000000e+01,4.889000000000000000e+03
2.000000000000000000e+00,8.770099999999999563e-01,6.000000000000000000e+01,4.892000000000000000e+03
2.000000000000000000e+00,8.199400000000000022e-01,3.000000000000000000e+01,4.904000000000000000e+03
2.000000000000000000e+00,7.362600000000000255e-01,3.000000000000000000e+01,4.914000000000000000e+03
2.000000000000000000e+00,5.061200000000000143e-01,6.000000000000000000e+01,4.915000000000000000e+03
2.000000000000000000e+00,7.745999999999999552e-01,6.000000000000000000e+01,4.931000000000000000e+03
2.000000000000000000e+00,8.052200000000000468e-01,3.000000000000000000e+01,4.933000000000000000e+03
2.000000000000000000e+00,7.114399999999999613e-01,3.000000000000000000e+01,4.939000000000000000e+03
2.000000000000000000e+00,8.722499999999999698e-01,3.000000000000000000e+01,4.951000000000000000e+03
2.000000000000000000e+00,7.438399999999999457e-01,3.000000000000000000e+01,4.955000000000000000e+03
2.000000000000000000e+00,9.819999999999999840e-01,3.000000000000000000e+01,4.960000000000000000e+03
2.000000000000000000e+00,6.607100000000000195e-01,3.000000000000000000e+01,4.962000000000000000e+03
2.000000000000000000e+00,4.735699999999999910e-01,3.000000000000000000e+01,4.970000000000000000e+03
2.000000000000000000e+00,9.385700000000000154e-01,3.000000000000000000e+01,4.971000000000000000e+03
2.000000000000000000e+00,8.461400000000000032e-01,3.000000000000000000e+01,4.973000000000000000e+03
2.000000000000000000e+00,5.916200000000000347e-01,3.000000000000000000e+01,4.976000000000000000e+03
2.000000000000000000e+00,7.586399999999999810e-01,3.000000000000000000e+01,4.977000000000000000e+03
2.000000000000000000e+00,5.934099999999999930e-01,3.000000000000000000e+01,4.981000000000000000e+03
2.000000000000000000e+00,5.054899999999999949e-01,3.000000000000000000e+01,4.982000000000000000e+03
2.000000000000000000e+00,5.878499999999999837e-01,3.000000000000000000e+01,4.986000000000000000e+03
2.000000000000000000e+00,5.332999999999999963e-01,3.000000000000000000e+01,4.998000000000000000e+03
2.000000000000000000e+00,7.617899999999999672e-01,3.000000000000000000e+01,4.999000000000000000e+03
2.000000000000000000e+00,9.126300000000000523e-01,6.000000000000000000e+01,5.004000000000000000e+03
2.000000000000000000e+00,7.864799999999999569e-01,3.000000000000000000e+01,5.010000000000000000e+03
2.000000000000000000e+00,7.599299999999999944e-01,3.000000000000000000e+01,5.012000000000000000e+03
2.000000000000000000e+00,4.632399999999999851e-01,3.000000000000000000e+01,5.013000000000000000e+03
2.000000000000000000e+00,8.555800000000000072e-01,3.000000000000000000e+01,5.015000000000000000e+03
2.000000000000000000e+00,9.885300000000000198e-01,3.000000000000000000e+01,5.016000000000000000e+03
2.000000000000000000e+00,5.257600000000000051e-01,3.000000000000000000e+01,5.017000000000000000e+03
2.000000000000000000e+00,7.865400000000000169e-01,3.000000000000000000e+01,5.020000000000000000e+03
2.000000000000000000e+00,8.712999999999999634e-01,3.000000000000000000e+01,5.026000000000000000e+03
2.000000000000000000e+00,9.374000000000000110e-01,3.000000000000000000e+01,5.027000000000000000e+03
2.000000000000000000e+00,8.082899999999999530e-01,3.000000000000000000e+01,5.030000000000000000e+03
2.000000000000000000e+00,5.548899999999999944e-01,3.000000000000000000e+01,5.050000000000000000e+03
2.000000000000000000e+00,7.574899999999999967e-01,3.000000000000000000e+01,5.054000000000000000e+03
2.000000000000000000e+00,6.081400000000000139e-01,3.000000000000000000e+01,5.060000000000000000e+03
2.000000000000000000e+00,5.818699999999999983e-01,3.000000000000000000e+01,5.064000000000000000e+03
2.000000000000000000e+00,8.579799999999999649e-01,3.000000000000000000e+01,5.066000000000000000e+03
2.000000000000000000e+00,8.669499999999999984e-01,3.000000000000000000e+01,5.067000000000000000e+03
2.000000000000000000e+00,6.234199999999999742e-01,3.000000000000000000e+01,5.070000000000000000e+03
2.000000000000000000e+00,6.778100000000000236e-01,3.000000000000000000e+01,5.072000000000000000e+03
2.000000000000000000e+00,4.522399999999999753e-01,3.000000000000000000e+01,5.079000000000000000e+03
2.000000000000000000e+00,6.939400000000000013e-01,3.000000000000000000e+01,5.086000000000000000e+03
2.000000000000000000e+00,7.996999999999999664e-01,3.000000000000000000e+01,5.090000000000000000e+03
2.000000000000000000e+00,8.157699999999999951e-01,3.000000000000000000e+01,5.096000000000000000e+03
2.000000000000000000e+00,8.264899999999999469e-01,3.000000000000000000e+01,5.099000000000000000e+03
2.000000000000000000e+00,9.433000000000000274e-01,3.000000000000000000e+01,5.108000000000000000e+03
2.000000000000000000e+00,7.228299999999999725e-01,6.000000000000000000e+01,5.123000000000000000e+03
2.000000000000000000e+00,8.624100000000000099e-01,3.000000000000000000e+01,5.132000000000000000e+03
2.000000000000000000e+00,8.012700000000000378e-01,2.525000000000000000e+01,5.139000000000000000e+03
2.000000000000000000e+00,6.798300000000000454e-01,3.000000000000000000e+01,5.144000000000000000e+03
2.000000000000000000e+00,6.834900000000000420e-01,6.000000000000000000e+01,5.150000000000000000e+03
2.000000000000000000e+00,4.690199999999999925e-01,3.000000000000000000e+01,5.153000000000000000e+03
2.000000000000000000e+00,7.907899999999999929e-01,3.000000000000000000e+01,5.160000000000000000e+03
2.000000000000000000e+00,5.481099999999999861e-01,3.000000000000000000e+01,5.166000000000000000e+03
2.000000000000000000e+00,9.516499999999999959e-01,3.000000000000000000e+01,5.170000000000000000e+03
2.000000000000000000e+00,9.363099999999999756e-01,3.000000000000000000e+01,5.171000000000000000e+03
2.000000000000000000e+00,5.326199999999999823e-01,1.771999999999999886e+01,5.175000000000000000e+03
2.000000000000000000e+00,9.345200000000000173e-01,3.000000000000000000e+01,5.176000000000000000e+03
2.000000000000000000e+00,7.994900000000000340e-01,3.000000000000000000e+01,5.180000000000000000e+03
2.000000000000000000e+00,8.079300000000000370e-01,3.000000000000000000e+01,5.181000000000000000e+03
2.000000000000000000e+00,8.994600000000000373e-01,3.000000000000000000e+01,5.197000000000000000e+03
2.000000000000000000e+00,4.235700000000000021e-01,3.000000000000000000e+01,5.201000000000000000e+03
2.000000000000000000e+00,9.341599999999999904e-01,3.000000000000000000e+01,5.208000000000000000e+03
2.000000000000000000e+00,5.063999999999999613e-01,3.000000000000000000e+01,5.213000000000000000e+03
2.000000000000000000e+00,8.373000000000000442e-01,3.000000000000000000e+01,5.214000000000000000e+03
2.000000000000000000e+00,5.211700000000000221e-01,3.000000000000000000e+01,5.216000000000000000e+03
2.000000000000000000e+00,9.798499999999999988e-01,3.000000000000000000e+01,5.217000000000000000e+03
2.000000000000000000e+00,8.119699999999999696e-01,3.000000000000000000e+01,5.220000000000000000e+03
2.000000000000000000e+00,9.222099999999999742e-01,3.000000000000000000e+01,5.224000000000000000e+03
2.000000000000000000e+00,7.767199999999999660e-01,3.000000000000000000e+01,5.232000000000000000e+03
2.000000000000000000e+00,6.001400000000000068e-01,3.000000000000000000e+01,5.234000000000000000e+03
2.000000000000000000e+00,8.449400000000000244e-01,6.000000000000000000e+01,5.242000000000000000e+03
2.000000000000000000e+00,6.657999999999999474e-01,3.000000000000000000e+01,5.243000000000000000e+03
2.000000000000000000e+00,7.920500000000000318e-01,3.000000000000000000e+01,5.244000000000000000e+03
2.000000000000000000e+00,6.755999999999999783e-01,3.000000000000000000e+01,5.252000000000000000e+03
2.000000000000000000e+00,5.696999999999999842e-01,3.000000000000000000e+01,5.269000000000000000e+03
2.000000000000000000e+00,6.691700000000000426e-01,6.000000000000000000e+01,5.276000000000000000e+03
2.000000000000000000e+00,7.649399999999999533e-01,2.407000000000000028e+01,5.277000000000000000e+03
2.000000000000000000e+00,6.758300000000000418e-01,6.000000000000000000e+01,5.282000000000000000e+03
2.000000000000000000e+00,8.236700000000000133e-01,3.000000000000000000e+01,5.285000000000000000e+03
2.000000000000000000e+00,5.034800000000000386e-01,3.000000000000000000e+01,5.297000000000000000e+03
2.000000000000000000e+00,5.239300000000000068e-01,3.000000000000000000e+01,5.300000000000000000e+03
2.000000000000000000e+00,5.517400000000000082e-01,3.000000000000000000e+01,5.301000000000000000e+03
2.000000000000000000e+00,7.864200000000000079e-01,3.000000000000000000e+01,5.302000000000000000e+03
2.000000000000000000e+00,9.186999999999999611e-01,3.000000000000000000e+01,5.308000000000000000e+03
2.000000000000000000e+00,6.875299999999999745e-01,6.000000000000000000e+01,5.309000000000000000e+03
2.000000000000000000e+00,9.522599999999999953e-01,3.000000000000000000e+01,5.310000000000000000e+03
2.000000000000000000e+00,6.977100000000000524e-01,3.000000000000000000e+01,5.311000000000000000e+03
2.000000000000000000e+00,7.468099999999999739e-01,3.000000000000000000e+01,5.312000000000000000e+03
2.000000000000000000e+00,8.035600000000000520e-01,3.000000000000000000e+01,5.316000000000000000e+03
2.000000000000000000e+00,4.354500000000000037e-01,3.000000000000000000e+01,5.319000000000000000e+03
2.000000000000000000e+00,6.602400000000000491e-01,3.000000000000000000e+01,5.332000000000000000e+03
2.000000000000000000e+00,7.550799999999999734e-01,3.000000000000000000e+01,5.336000000000000000e+03
2.000000000000000000e+00,8.205500000000000016e-01,3.000000000000000000e+01,5.343000000000000000e+03
2.000000000000000000e+00,6.078900000000000414e-01,3.000000000000000000e+01,5.356000000000000000e+03
2.000000000000000000e+00,5.010900000000000354e-01,1.347000000000000064e+01,5.364000000000000000e+03
2.000000000000000000e+00,5.928799999999999626e-01,6.000000000000000000e+01,5.373000000000000000e+03
2.000000000000000000e+00,8.882200000000000095e-01,3.000000000000000000e+01,5.379000000000000000e+03
2.000000000000000000e+00,7.739399999999999613e-01,3.000000000000000000e+01,5.381000000000000000e+03
2.000000000000000000e+00,8.784499999999999531e-01,3.000000000000000000e+01,5.383000000000000000e+03
2.000000000000000000e+00,5.985300000000000065e-01,3.000000000000000000e+01,5.398000000000000000e+03
2.000000000000000000e+00,7.748399999999999732e-01,3.000000000000000000e+01,5.401000000000000000e+03
2.000000000000000000e+00,7.952399999999999469e-01,2.603999999999999915e+01,5.415000000000000000e+03
2.000000000000000000e+00,7.131499999999999506e-01,6.000000000000000000e+01,5.425000000000000000e+03
2.000000000000000000e+00,6.342299999999999605e-01,3.000000000000000000e+01,5.434000000000000000e+03
2.000000000000000000e+00,5.307500000000000551e-01,3.000000000000000000e+01,5.435000000000000000e+03
2.000000000000000000e+00,6.979300000000000503e-01,3.000000000000000000e+01,5.437000000000000000e+03
2.000000000000000000e+00,9.737000000000000099e-01,3.000000000000000000e+01,5.442000000000000000e+03
2.000000000000000000e+00,6.776999999999999691e-01,6.045000000000000284e+01,5.443000000000000000e+03
2.000000000000000000e+00,9.385900000000000354e-01,3.000000000000000000e+01,5.444000000000000000e+03
2.000000000000000000e+00,7.715800000000000436e-01,3.000000000000000000e+01,5.454000000000000000e+03
2.000000000000000000e+00,4.099700000000000011e-01,1.733999999999999986e+01,5.462000000000000000e+03
2.000000000000000000e+00,4.605699999999999794e-01,3.000000000000000000e+01,5.464000000000000000e+03
2.000000000000000000e+00,8.872600000000000486e-01,6.000000000000000000e+01,5.471000000000000000e+03
2.000000000000000000e+00,8.832600000000000451e-01,3.000000000000000000e+01,5.481000000000000000e+03
2.000000000000000000e+00,5.970100000000000406e-01,3.000000000000000000e+01,5.483000000000000000e+03
2.000000000000000000e+00,6.937400000000000233e-01,6.000000000000000000e+01,5.489000000000000000e+03
2.000000000000000000e+00,8.793999999999999595e-01,3.000000000000000000e+01,5.492000000000000000e+03
2.000000000000000000e+00,4.571000000000000063e-01,3.000000000000000000e+01,5.494000000000000000e+03
2.000000000000000000e+00,6.905299999999999772e-01,3.000000000000000000e+01,5.502000000000000000e+03
2.000000000000000000e+00,5.822800000000000198e-01,3.000000000000000000e+01,5.509000000000000000e+03
2.000000000000000000e+00,4.867600000000000260e-01,3.000000000000000000e+01,5.514000000000000000e+03
2.000000000000000000e+00,6.835499999999999909e-01,3.000000000000000000e+01,5.520000000000000000e+03
2.000000000000000000e+00,8.610600000000000476e-01,3.000000000000000000e+01,5.523000000000000000e+03
2.000000000000000000e+00,7.322699999999999765e-01,3.000000000000000000e+01,5.528000000000000000e+03
2.000000000000000000e+00,7.162600000000000078e-01,3.000000000000000000e+01,5.539000000000000000e+03
2.000000000000000000e+00,8.275900000000000478e-01,3.000000000000000000e+01,5.540000000000000000e+03
2.000000000000000000e+00,9.863800000000000345e-01,3.000000000000000000e+01,5.542000000000000000e+03
2.000000000000000000e+00,8.413399999999999768e-01,6.000000000000000000e+01,5.551000000000000000e+03
2.000000000000000000e+00,8.510299999999999532e-01,3.000000000000000000e+01,5.556000000000000000e+03
2.000000000000000000e+00,9.496299999999999741e-01,6.000000000000000000e+01,5.557000000000000000e+03
2.000000000000000000e+00,6.557899999999999840e-01,6.000000000000000000e+01,5.558000000000000000e+03
2.000000000000000000e+00,5.964699999999999447e-01,3.000000000000000000e+01,5.568000000000000000e+03
2.000000000000000000e+00,4.703999999999999848e-01,4.563000000000000256e+01,5.597000000000000000e+03
2.000000000000000000e+00,8.820400000000000462e-01,3.453999999999999915e+01,5.603000000000000000e+03
2.000000000000000000e+00,6.672099999999999698e-01,3.000000000000000000e+01,5.609000000000000000e+03
2.000000000000000000e+00,9.062500000000000000e-01,3.660999999999999943e+01,5.614000000000000000e+03
2.000000000000000000e+00,7.628500000000000281e-01,4.529999999999999716e+01,5.618000000000000000e+03
2.000000000000000000e+00,6.879600000000000160e-01,3.267999999999999972e+01,5.619000000000000000e+03
2.000000000000000000e+00,8.070500000000000451e-01,3.000000000000000000e+01,5.627000000000000000e+03
2.000000000000000000e+00,8.731900000000000217e-01,6.027000000000000313e+01,5.628000000000000000e+03
2.000000000000000000e+00,8.714399999999999924e-01,4.235999999999999943e+01,5.632000000000000000e+03
2.000000000000000000e+00,9.307199999999999918e-01,4.246000000000000085e+01,5.637000000000000000e+03
2.000000000000000000e+00,8.709999999999999964e-01,3.567000000000000171e+01,5.640000000000000000e+03
2.000000000000000000e+00,8.242300000000000182e-01,4.667999999999999972e+01,5.644000000000000000e+03
2.000000000000000000e+00,8.285400000000000542e-01,3.225999999999999801e+01,5.653000000000000000e+03
2.000000000000000000e+00,9.477999999999999758e-01,3.185000000000000142e+01,5.654000000000000000e+03
2.000000000000000000e+00,6.278599999999999737e-01,3.453999999999999915e+01,5.655000000000000000e+03
2.000000000000000000e+00,4.423199999999999910e-01,3.032999999999999829e+01,5.659000000000000000e+03
2.000000000000000000e+00,7.510499999999999954e-01,3.414000000000000057e+01,5.665000000000000000e+03
2.000000000000000000e+00,4.403099999999999792e-01,2.355000000000000071e+01,5.668000000000000000e+03
2.000000000000000000e+00,8.485899999999999554e-01,3.000000000000000000e+01,5.674000000000000000e+03
2.000000000000000000e+00,8.573300000000000365e-01,6.060999999999999943e+01,5.679000000000000000e+03
2.000000000000000000e+00,5.006300000000000194e-01,2.996999999999999886e+01,5.680000000000000000e+03
2.000000000000000000e+00,9.091099999999999737e-01,3.264999999999999858e+01,5.683000000000000000e+03
2.000000000000000000e+00,9.181000000000000272e-01,3.725000000000000000e+01,5.689000000000000000e+03
2.000000000000000000e+00,8.950299999999999923e-01,3.271000000000000085e+01,5.693000000000000000e+03
2.000000000000000000e+00,7.987300000000000511e-01,3.000000000000000000e+01,5.696000000000000000e+03
2.000000000000000000e+00,5.968499999999999917e-01,3.000000000000000000e+01,5.707000000000000000e+03
2.000000000000000000e+00,8.613300000000000400e-01,3.242000000000000171e+01,5.720000000000000000e+03
2.000000000000000000e+00,8.074999999999999956e-01,4.113000000000000256e+01,5.730000000000000000e+03
2.000000000000000000e+00,5.170900000000000496e-01,3.000000000000000000e+01,5.732000000000000000e+03
2.000000000000000000e+00,9.010599999999999721e-01,5.395000000000000284e+01,5.734000000000000000e+03
2.000000000000000000e+00,8.884699999999999820e-01,3.463000000000000256e+01,5.735000000000000000e+03
2.000000000000000000e+00,7.488700000000000356e-01,3.295000000000000284e+01,5.741000000000000000e+03
2.000000000000000000e+00,6.452299999999999702e-01,3.446000000000000085e+01,5.746000000000000000e+03
2.000000000000000000e+00,5.619899999999999896e-01,3.322999999999999687e+01,5.749000000000000000e+03
2.000000000000000000e+00,9.197100000000000275e-01,3.000000000000000000e+01,5.750000000000000000e+03
2.000000000000000000e+00,7.792200000000000237e-01,3.653000000000000114e+01,5.758000000000000000e+03
2.000000000000000000e+00,9.844899999999999762e-01,4.359000000000000341e+01,5.760000000000000000e+03
2.000000000000000000e+00,8.749400000000000510e-01,3.085999999999999943e+01,5.764000000000000000e+03
2.000000000000000000e+00,7.865100000000000424e-01,3.249000000000000199e+01,5.774000000000000000e+03
2.000000000000000000e+00,8.204799999999999871e-01,3.012999999999999901e+01,5.776000000000000000e+03
2.000000000000000000e+00,8.122700000000000475e-01,3.346999999999999886e+01,5.778000000000000000e+03
2.000000000000000000e+00,9.445200000000000262e-01,3.261999999999999744e+01,5.782000000000000000e+03
2.000000000000000000e+00,6.102699999999999791e-01,3.615999999999999659e+01,5.788000000000000000e+03
2.000000000000000000e+00,6.046799999999999953e-01,3.000000000000000000e+01,5.798000000000000000e+03
2.000000000000000000e+00,6.409599999999999742e-01,3.317999999999999972e+01,5.801000000000000000e+03
2.000000000000000000e+00,5.249000000000000332e-01,3.374000000000000199e+01,5.804000000000000000e+03
2.000000000000000000e+00,5.455100000000000504e-01,3.342999999999999972e+01,5.807000000000000000e+03
2.000000000000000000e+00,5.977099999999999635e-01,6.042999999999999972e+01,5.818000000000000000e+03
2.000000000000000000e+00,8.895699999999999719e-01,4.881000000000000227e+01,5.819000000000000000e+03
2.000000000000000000e+00,5.100599999999999579e-01,3.000000000000000000e+01,5.823000000000000000e+03
2.000000000000000000e+00,9.527099999999999458e-01,3.000000000000000000e+01,5.829000000000000000e+03
2.000000000000000000e+00,6.334400000000000031e-01,5.114999999999999858e+01,5.831000000000000000e+03
2.000000000000000000e+00,9.660900000000000043e-01,3.000000000000000000e+01,5.838000000000000000e+03
2.000000000000000000e+00,9.839900000000000313e-01,3.349000000000000199e+01,5.840000000000000000e+03
2.000000000000000000e+00,6.725700000000000012e-01,3.000000000000000000e+01,5.841000000000000000e+03
2.000000000000000000e+00,7.835600000000000342e-01,3.932999999999999829e+01,5.842000000000000000e+03
2.000000000000000000e+00,6.035700000000000509e-01,3.496000000000000085e+01,5.845000000000000000e+03
2.000000000000000000e+00,4.917400000000000104e-01,1.678999999999999915e+01,5.846000000000000000e+03
2.000000000000000000e+00,3.976999999999999980e-01,3.000000000000000000e+01,5.857000000000000000e+03
2.000000000000000000e+00,7.911299999999999999e-01,5.909000000000000341e+01,5.867000000000000000e+03
2.000000000000000000e+00,7.373399999999999954e-01,3.363000000000000256e+01,5.871000000000000000e+03
2.000000000000000000e+00,5.349399999999999711e-01,3.000000000000000000e+01,5.901000000000000000e+03
2.000000000000000000e+00,8.154700000000000282e-01,3.000000000000000000e+01,5.902000000000000000e+03
2.000000000000000000e+00,5.208500000000000352e-01,4.146000000000000085e+01,5.907000000000000000e+03
2.000000000000000000e+00,3.736200000000000077e-01,2.776000000000000156e+01,5.911000000000000000e+03
2.000000000000000000e+00,5.922300000000000342e-01,4.039000000000000057e+01,5.913000000000000000e+03
2.000000000000000000e+00,7.911000000000000254e-01,3.796999999999999886e+01,5.916000000000000000e+03
2.000000000000000000e+00,5.936500000000000110e-01,3.372999999999999687e+01,5.921000000000000000e+03
2.000000000000000000e+00,5.061299999999999688e-01,3.674000000000000199e+01,5.922000000000000000e+03
2.000000000000000000e+00,8.279999999999999583e-01,4.564999999999999858e+01,5.925000000000000000e+03
2.000000000000000000e+00,6.657100000000000239e-01,3.000000000000000000e+01,5.927000000000000000e+03
2.000000000000000000e+00,7.927100000000000257e-01,4.067999999999999972e+01,5.942000000000000000e+03
2.000000000000000000e+00,8.945100000000000273e-01,3.360999999999999943e+01,5.946000000000000000e+03
2.000000000000000000e+00,7.427500000000000213e-01,4.809000000000000341e+01,5.954000000000000000e+03
2.000000000000000000e+00,7.034000000000000252e-01,3.403999999999999915e+01,5.962000000000000000e+03
2.000000000000000000e+00,8.799200000000000355e-01,3.000000000000000000e+01,5.965000000000000000e+03
2.000000000000000000e+00,7.588700000000000445e-01,3.000000000000000000e+01,5.966000000000000000e+03
2.000000000000000000e+00,6.035300000000000109e-01,3.000000000000000000e+01,5.969000000000000000e+03
2.000000000000000000e+00,4.946699999999999986e-01,4.253999999999999915e+01,5.970000000000000000e+03
2.000000000000000000e+00,5.974300000000000166e-01,3.000000000000000000e+01,5.973000000000000000e+03
2.000000000000000000e+00,8.874499999999999611e-01,3.000000000000000000e+01,5.974000000000000000e+03
2.000000000000000000e+00,6.656300000000000550e-01,3.000000000000000000e+01,5.978000000000000000e+03
2.000000000000000000e+00,6.973000000000000309e-01,3.000000000000000000e+01,5.981000000000000000e+03
2.000000000000000000e+00,4.929600000000000093e-01,3.000000000000000000e+01,5.983000000000000000e+03
2.000000000000000000e+00,5.458300000000000374e-01,3.336999999999999744e+01,5.986000000000000000e+03
2.000000000000000000e+00,6.701000000000000290e-01,3.000000000000000000e+01,5.996000000000000000e+03
2.000000000000000000e+00,9.031900000000000484e-01,3.914999999999999858e+01,5.997000000000000000e+03
2.000000000000000000e+00,8.552699999999999747e-01,4.371000000000000085e+01,6.003000000000000000e+03
2.000000000000000000e+00,5.107699999999999463e-01,5.089999999999999858e+01,6.004000000000000000e+03
2.000000000000000000e+00,9.637200000000000211e-01,3.000000000000000000e+01,6.005000000000000000e+03
2.000000000000000000e+00,7.125399999999999512e-01,3.359000000000000341e+01,6.008000000000000000e+03
2.000000000000000000e+00,7.242100000000000204e-01,4.081000000000000227e+01,6.012000000000000000e+03
2.000000000000000000e+00,7.672499999999999876e-01,3.000000000000000000e+01,6.020000000000000000e+03
2.000000000000000000e+00,8.039300000000000335e-01,5.296999999999999886e+01,6.033000000000000000e+03
2.000000000000000000e+00,5.938700000000000090e-01,1.787999999999999901e+01,6.040000000000000000e+03
2.000000000000000000e+00,9.603800000000000114e-01,4.167000000000000171e+01,6.042000000000000000e+03
2.000000000000000000e+00,5.302499999999999991e-01,3.682999999999999829e+01,6.050000000000000000e+03
2.000000000000000000e+00,9.329499999999999460e-01,3.785000000000000142e+01,6.054000000000000000e+03
2.000000000000000000e+00,6.518699999999999495e-01,3.843999999999999773e+01,6.055000000000000000e+03
2.000000000000000000e+00,7.376099999999999879e-01,3.552000000000000313e+01,6.067000000000000000e+03
2.000000000000000000e+00,7.543699999999999850e-01,3.425999999999999801e+01,6.069000000000000000e+03
2.000000000000000000e+00,9.007199999999999651e-01,3.000000000000000000e+01,6.071000000000000000e+03
2.000000000000000000e+00,8.724300000000000388e-01,3.000000000000000000e+01,6.072000000000000000e+03
2.000000000000000000e+00,9.249500000000000499e-01,3.371999999999999886e+01,6.073000000000000000e+03
2.000000000000000000e+00,5.959600000000000453e-01,4.617999999999999972e+01,6.078000000000000000e+03
2.000000000000000000e+00,6.137399999999999523e-01,3.000000000000000000e+01,6.089000000000000000e+03
2.000000000000000000e+00,5.081299999999999706e-01,3.318999999999999773e+01,6.101000000000000000e+03
2.000000000000000000e+00,8.599400000000000377e-01,3.271000000000000085e+01,6.110000000000000000e+03
2.000000000000000000e+00,7.902900000000000480e-01,3.760000000000000142e+01,6.123000000000000000e+03
2.000000000000000000e+00,7.515800000000000258e-01,3.385000000000000142e+01,6.126000000000000000e+03
2.000000000000000000e+00,8.211199999999999610e-01,3.000000000000000000e+01,6.134000000000000000e+03
2.000000000000000000e+00,7.804699999999999971e-01,3.000000000000000000e+01,6.135000000000000000e+03
2.000000000000000000e+00,7.683200000000000029e-01,3.000000000000000000e+01,6.141000000000000000e+03
2.000000000000000000e+00,8.847500000000000364e-01,3.000000000000000000e+01,6.158000000000000000e+03
2.000000000000000000e+00,8.599299999999999722e-01,3.770000000000000284e+01,6.160000000000000000e+03
2.000000000000000000e+00,6.488000000000000433e-01,3.635000000000000142e+01,6.169000000000000000e+03
2.000000000000000000e+00,5.316699999999999759e-01,3.000000000000000000e+01,6.170000000000000000e+03
2.000000000000000000e+00,5.384700000000000042e-01,3.495000000000000284e+01,6.176000000000000000e+03
2.000000000000000000e+00,9.148199999999999665e-01,3.528000000000000114e+01,6.182000000000000000e+03
2.000000000000000000e+00,4.781599999999999739e-01,3.603000000000000114e+01,6.190000000000000000e+03
2.000000000000000000e+00,8.713300000000000489e-01,3.000000000000000000e+01,6.193000000000000000e+03
2.000000000000000000e+00,8.527400000000000535e-01,3.457000000000000028e+01,6.195000000000000000e+03
2.000000000000000000e+00,6.862399999999999611e-01,3.243999999999999773e+01,6.201000000000000000e+03
2.000000000000000000e+00,7.050699999999999745e-01,5.789999999999999858e+01,6.202000000000000000e+03
2.000000000000000000e+00,8.644399999999999862e-01,4.882999999999999829e+01,6.208000000000000000e+03
2.000000000000000000e+00,6.468199999999999505e-01,3.367000000000000171e+01,6.210000000000000000e+03
2.000000000000000000e+00,7.718000000000000416e-01,3.000000000000000000e+01,6.212000000000000000e+03
2.000000000000000000e+00,9.071299999999999919e-01,5.753000000000000114e+01,6.222000000000000000e+03
2.000000000000000000e+00,8.720299999999999718e-01,2.389999999999999858e+01,6.224000000000000000e+03
2.000000000000000000e+00,7.556399999999999784e-01,3.142999999999999972e+01,6.226000000000000000e+03
2.000000000000000000e+00,5.822100000000000053e-01,3.209000000000000341e+01,6.231000000000000000e+03
2.000000000000000000e+00,7.757600000000000051e-01,3.000000000000000000e+01,6.236000000000000000e+03
2.000000000000000000e+00,7.951799999999999979e-01,3.000000000000000000e+01,6.238000000000000000e+03
2.000000000000000000e+00,4.804999999999999827e-01,5.734000000000000341e+01,6.239000000000000000e+03
2.000000000000000000e+00,8.787500000000000311e-01,3.332999999999999829e+01,6.242000000000000000e+03
2.000000000000000000e+00,7.373300000000000409e-01,3.279999999999999716e+01,6.246000000000000000e+03
2.000000000000000000e+00,9.204900000000000304e-01,3.256000000000000227e+01,6.247000000000000000e+03
2.000000000000000000e+00,7.252600000000000158e-01,6.060999999999999943e+01,6.253000000000000000e+03
2.000000000000000000e+00,7.982599999999999696e-01,3.000000000000000000e+01,6.260000000000000000e+03
2.000000000000000000e+00,7.465699999999999559e-01,3.556000000000000227e+01,6.266000000000000000e+03
2.000000000000000000e+00,8.621799999999999464e-01,3.000000000000000000e+01,6.268000000000000000e+03
2.000000000000000000e+00,4.690199999999999925e-01,3.000000000000000000e+01,6.272000000000000000e+03
2.000000000000000000e+00,7.246200000000000419e-01,6.025999999999999801e+01,6.281000000000000000e+03
2.000000000000000000e+00,6.535100000000000353e-01,3.000000000000000000e+01,6.287000000000000000e+03
2.000000000000000000e+00,4.611399999999999944e-01,5.021000000000000085e+01,6.290000000000000000e+03
2.000000000000000000e+00,8.691900000000000182e-01,3.315999999999999659e+01,6.298000000000000000e+03
2.000000000000000000e+00,6.653700000000000170e-01,3.246999999999999886e+01,6.300000000000000000e+03
2.000000000000000000e+00,5.137500000000000400e-01,5.667999999999999972e+01,6.307000000000000000e+03
2.000000000000000000e+00,8.644800000000000262e-01,3.454999999999999716e+01,6.312000000000000000e+03
2.000000000000000000e+00,9.413399999999999546e-01,3.000000000000000000e+01,6.318000000000000000e+03
2.000000000000000000e+00,4.918600000000000194e-01,3.148999999999999844e+01,6.323000000000000000e+03
2.000000000000000000e+00,7.116400000000000503e-01,4.667000000000000171e+01,6.325000000000000000e+03
2.000000000000000000e+00,6.275100000000000122e-01,3.000000000000000000e+01,6.332000000000000000e+03
2.000000000000000000e+00,8.252699999999999481e-01,3.464999999999999858e+01,6.335000000000000000e+03
2.000000000000000000e+00,7.845100000000000406e-01,5.018999999999999773e+01,6.338000000000000000e+03
2.000000000000000000e+00,9.164900000000000269e-01,3.392000000000000171e+01,6.339000000000000000e+03
2.000000000000000000e+00,6.054899999999999727e-01,3.000000000000000000e+01,6.340000000000000000e+03
2.000000000000000000e+00,7.295899999999999608e-01,3.000000000000000000e+01,6.347000000000000000e+03
2.000000000000000000e+00,6.469099999999999850e-01,3.000000000000000000e+01,6.356000000000000000e+03
2.000000000000000000e+00,6.309000000000000163e-01,3.000000000000000000e+01,6.357000000000000000e+03
2.000000000000000000e+00,7.133800000000000141e-01,3.000000000000000000e+01,6.358000000000000000e+03
2.000000000000000000e+00,8.639400000000000412e-01,3.000000000000000000e+01,6.369000000000000000e+03
2.000000000000000000e+00,7.876999999999999558e-01,6.000000000000000000e+01,6.374000000000000000e+03
2.000000000000000000e+00,6.044800000000000173e-01,5.771999999999999886e+01,6.386000000000000000e+03
2.000000000000000000e+00,6.058099999999999596e-01,1.944999999999999929e+01,6.387000000000000000e+03
2.000000000000000000e+00,7.554899999999999949e-01,6.000000000000000000e+01,6.388000000000000000e+03
2.000000000000000000e+00,7.396899999999999586e-01,2.442999999999999972e+01,6.403000000000000000e+03
2.000000000000000000e+00,6.041499999999999648e-01,6.000000000000000000e+01,6.416000000000000000e+03
2.000000000000000000e+00,6.437100000000000044e-01,1.758999999999999986e+01,6.422000000000000000e+03
2.000000000000000000e+00,8.978300000000000169e-01,3.000000000000000000e+01,6.430000000000000000e+03
2.000000000000000000e+00,7.670700000000000296e-01,6.000000000000000000e+01,6.436000000000000000e+03
2.000000000000000000e+00,9.625299999999999967e-01,3.000000000000000000e+01,6.440000000000000000e+03
2.000000000000000000e+00,7.362699999999999800e-01,3.000000000000000000e+01,6.444000000000000000e+03
2.000000000000000000e+00,8.898800000000000043e-01,3.000000000000000000e+01,6.451000000000000000e+03
2.000000000000000000e+00,5.250399999999999512e-01,3.000000000000000000e+01,6.456000000000000000e+03
2.000000000000000000e+00,9.048899999999999721e-01,3.000000000000000000e+01,6.460000000000000000e+03
2.000000000000000000e+00,5.476900000000000102e-01,3.000000000000000000e+01,6.472000000000000000e+03
2.000000000000000000e+00,4.303299999999999903e-01,6.000000000000000000e+01,6.477000000000000000e+03
2.000000000000000000e+00,6.765099999999999447e-01,3.000000000000000000e+01,6.485000000000000000e+03
2.000000000000000000e+00,5.011499999999999844e-01,3.000000000000000000e+01,6.489000000000000000e+03
2.000000000000000000e+00,8.107600000000000362e-01,3.000000000000000000e+01,6.510000000000000000e+03
2.000000000000000000e+00,7.009600000000000275e-01,2.223000000000000043e+01,6.513000000000000000e+03
2.000000000000000000e+00,8.360999999999999543e-01,3.000000000000000000e+01,6.515000000000000000e+03
2.000000000000000000e+00,8.503699999999999593e-01,3.000000000000000000e+01,6.516000000000000000e+03
2.000000000000000000e+00,8.365299999999999958e-01,6.000000000000000000e+01,6.517000000000000000e+03
2.000000000000000000e+00,4.823700000000000210e-01,3.000000000000000000e+01,6.527000000000000000e+03
2.000000000000000000e+00,9.361800000000000122e-01,6.000000000000000000e+01,6.532000000000000000e+03
2.000000000000000000e+00,9.075699999999999878e-01,3.000000000000000000e+01,6.533000000000000000e+03
2.000000000000000000e+00,5.722500000000000364e-01,3.000000000000000000e+01,6.537000000000000000e+03
2.000000000000000000e+00,4.233700000000000241e-01,3.000000000000000000e+01,6.548000000000000000e+03
2.000000000000000000e+00,9.836399999999999588e-01,3.000000000000000000e+01,6.554000000000000000e+03
2.000000000000000000e+00,4.685199999999999920e-01,3.000000000000000000e+01,6.556000000000000000e+03
2.000000000000000000e+00,4.514400000000000079e-01,3.000000000000000000e+01,6.559000000000000000e+03
2.000000000000000000e+00,7.573600000000000332e-01,3.000000000000000000e+01,6.562000000000000000e+03
2.000000000000000000e+00,6.522700000000000164e-01,3.000000000000000000e+01,6.571000000000000000e+03
2.000000000000000000e+00,8.609599999999999476e-01,6.000000000000000000e+01,6.584000000000000000e+03
2.000000000000000000e+00,8.564500000000000446e-01,3.000000000000000000e+01,6.614000000000000000e+03
2.000000000000000000e+00,6.593499999999999917e-01,3.000000000000000000e+01,6.629000000000000000e+03
2.000000000000000000e+00,7.687100000000000044e-01,6.000000000000000000e+01,6.630000000000000000e+03
2.000000000000000000e+00,9.539199999999999902e-01,3.000000000000000000e+01,6.633000000000000000e+03
2.000000000000000000e+00,8.722299999999999498e-01,6.000000000000000000e+01,6.639000000000000000e+03
2.000000000000000000e+00,5.999900000000000233e-01,3.000000000000000000e+01,6.642000000000000000e+03
2.000000000000000000e+00,6.823299999999999921e-01,3.000000000000000000e+01,6.647000000000000000e+03
2.000000000000000000e+00,6.927600000000000424e-01,3.000000000000000000e+01,6.658000000000000000e+03
2.000000000000000000e+00,7.195500000000000229e-01,3.000000000000000000e+01,6.660000000000000000e+03
2.000000000000000000e+00,6.077099999999999724e-01,3.000000000000000000e+01,6.661000000000000000e+03
2.000000000000000000e+00,7.763799999999999590e-01,3.000000000000000000e+01,6.683000000000000000e+03
2.000000000000000000e+00,9.180599999999999872e-01,3.005000000000000071e+01,6.685000000000000000e+03
2.000000000000000000e+00,5.300399999999999556e-01,3.000000000000000000e+01,6.688000000000000000e+03
2.000000000000000000e+00,7.830000000000000293e-01,3.000000000000000000e+01,6.693000000000000000e+03
2.000000000000000000e+00,6.581099999999999728e-01,3.000000000000000000e+01,6.705000000000000000e+03
2.000000000000000000e+00,5.745500000000000052e-01,3.000000000000000000e+01,6.715000000000000000e+03
2.000000000000000000e+00,7.648700000000000498e-01,3.000000000000000000e+01,6.724000000000000000e+03
2.000000000000000000e+00,9.399399999999999977e-01,3.000000000000000000e+01,6.727000000000000000e+03
2.000000000000000000e+00,6.584900000000000198e-01,3.000000000000000000e+01,6.728000000000000000e+03
2.000000000000000000e+00,8.338400000000000256e-01,3.000000000000000000e+01,6.737000000000000000e+03
2.000000000000000000e+00,4.833799999999999764e-01,3.000000000000000000e+01,6.748000000000000000e+03
2.000000000000000000e+00,6.049799999999999622e-01,3.000000000000000000e+01,6.757000000000000000e+03
2.000000000000000000e+00,5.195999999999999508e-01,3.000000000000000000e+01,6.759000000000000000e+03
2.000000000000000000e+00,7.563800000000000523e-01,3.000000000000000000e+01,6.760000000000000000e+03
2.000000000000000000e+00,6.748300000000000409e-01,3.000000000000000000e+01,6.764000000000000000e+03
2.000000000000000000e+00,5.729699999999999793e-01,3.000000000000000000e+01,6.772000000000000000e+03
2.000000000000000000e+00,6.644700000000000051e-01,3.000000000000000000e+01,6.773000000000000000e+03
2.000000000000000000e+00,9.078600000000000003e-01,3.000000000000000000e+01,6.789000000000000000e+03
2.000000000000000000e+00,9.069199999999999484e-01,2.678000000000000114e+01,6.793000000000000000e+03
2.000000000000000000e+00,5.349000000000000421e-01,6.000000000000000000e+01,6.794000000000000000e+03
2.000000000000000000e+00,9.601100000000000190e-01,3.763000000000000256e+01,6.799000000000000000e+03
2.000000000000000000e+00,6.898199999999999887e-01,3.000000000000000000e+01,6.801000000000000000e+03
2.000000000000000000e+00,9.578600000000000447e-01,3.000000000000000000e+01,6.807000000000000000e+03
2.000000000000000000e+00,9.602899999999999769e-01,3.000000000000000000e+01,6.808000000000000000e+03
2.000000000000000000e+00,8.076299999999999590e-01,3.000000000000000000e+01,6.811000000000000000e+03
2.000000000000000000e+00,5.057199999999999473e-01,3.000000000000000000e+01,6.816000000000000000e+03
2.000000000000000000e+00,8.023200000000000331e-01,3.000000000000000000e+01,6.823000000000000000e+03
2.000000000000000000e+00,7.547599999999999865e-01,3.000000000000000000e+01,6.834000000000000000e+03
2.000000000000000000e+00,5.152099999999999458e-01,3.000000000000000000e+01,6.837000000000000000e+03
2.000000000000000000e+00,9.073400000000000354e-01,3.000000000000000000e+01,6.845000000000000000e+03
2.000000000000000000e+00,7.003500000000000281e-01,3.000000000000000000e+01,6.847000000000000000e+03
