0.000000000000000000e+00,9.999000000000000110e-01,5.920000000000000000e+02
0.000000000000000000e+00,9.969799999999999773e-01,3.498000000000000000e+03
0.000000000000000000e+00,9.962600000000000344e-01,8.422000000000000000e+03
0.000000000000000000e+00,9.952499999999999680e-01,2.126000000000000000e+03
0.000000000000000000e+00,9.931400000000000228e-01,2.895000000000000000e+03
0.000000000000000000e+00,9.925100000000000033e-01,1.005000000000000000e+03
0.000000000000000000e+00,9.901900000000000146e-01,7.100000000000000000e+01
0.000000000000000000e+00,9.867000000000000215e-01,5.670000000000000000e+03
0.000000000000000000e+00,9.864500000000000490e-01,7.957000000000000000e+03
0.000000000000000000e+00,9.852600000000000247e-01,3.707000000000000000e+03
0.000000000000000000e+00,9.844199999999999617e-01,1.104000000000000000e+03
0.000000000000000000e+00,9.838599999999999568e-01,1.240000000000000000e+03
0.000000000000000000e+00,9.834000000000000519e-01,8.670000000000000000e+02
0.000000000000000000e+00,9.833699999999999664e-01,2.710000000000000000e+02
0.000000000000000000e+00,9.828500000000000014e-01,2.845000000000000000e+03
0.000000000000000000e+00,9.809299999999999686e-01,5.572000000000000000e+03
0.000000000000000000e+00,9.808900000000000396e-01,5.616000000000000000e+03
0.000000000000000000e+00,9.795599999999999863e-01,1.824000000000000000e+03
0.000000000000000000e+00,9.794399999999999773e-01,5.987000000000000000e+03
0.000000000000000000e+00,9.766500000000000181e-01,1.753000000000000000e+03
0.000000000000000000e+00,9.743800000000000239e-01,6.210000000000000000e+02
0.000000000000000000e+00,9.717099999999999627e-01,5.935000000000000000e+03
0.000000000000000000e+00,9.709499999999999797e-01,1.076000000000000000e+03
0.000000000000000000e+00,9.696000000000000174e-01,1.370000000000000000e+03
0.000000000000000000e+00,9.670199999999999907e-01,7.467000000000000000e+03
0.000000000000000000e+00,9.659699999999999953e-01,3.548000000000000000e+03
0.000000000000000000e+00,9.656099999999999683e-01,1.786000000000000000e+03
0.000000000000000000e+00,9.649199999999999999e-01,2.550000000000000000e+03
0.000000000000000000e+00,9.639199999999999990e-01,3.670000000000000000e+03
0.000000000000000000e+00,9.626500000000000057e-01,3.446000000000000000e+03
0.000000000000000000e+00,9.607499999999999929e-01,5.238000000000000000e+03
0.000000000000000000e+00,9.581600000000000117e-01,9.720000000000000000e+02
0.000000000000000000e+00,9.576999999999999957e-01,4.815000000000000000e+03
0.000000000000000000e+00,9.561600000000000099e-01,2.549000000000000000e+03
0.000000000000000000e+00,9.552899999999999725e-01,2.499000000000000000e+03
0.000000000000000000e+00,9.524799999999999933e-01,4.218000000000000000e+03
0.000000000000000000e+00,9.522300000000000209e-01,2.391000000000000000e+03
0.000000000000000000e+00,9.497900000000000231e-01,4.410000000000000000e+02
0.000000000000000000e+00,9.482300000000000173e-01,3.750000000000000000e+02
0.000000000000000000e+00,9.478299999999999503e-01,1.693000000000000000e+03
0.000000000000000000e+00,9.464299999999999935e-01,7.063000000000000000e+03
0.000000000000000000e+00,9.460800000000000320e-01,4.019000000000000000e+03
0.000000000000000000e+00,9.459899999999999975e-01,6.900000000000000000e+03
0.000000000000000000e+00,9.459600000000000231e-01,2.738000000000000000e+03
0.000000000000000000e+00,9.443000000000000282e-01,5.789000000000000000e+03
0.000000000000000000e+00,9.438499999999999668e-01,5.591000000000000000e+03
0.000000000000000000e+00,9.435999999999999943e-01,2.820000000000000000e+02
0.000000000000000000e+00,9.419100000000000250e-01,3.983000000000000000e+03
0.000000000000000000e+00,9.409499999999999531e-01,5.458000000000000000e+03
0.000000000000000000e+00,9.376700000000000035e-01,3.569000000000000000e+03
0.000000000000000000e+00,9.354999999999999982e-01,7.042000000000000000e+03
0.000000000000000000e+00,9.352800000000000002e-01,5.768000000000000000e+03
0.000000000000000000e+00,9.342000000000000304e-01,4.952000000000000000e+03
0.000000000000000000e+00,9.337699999999999889e-01,4.901000000000000000e+03
0.000000000000000000e+00,9.325700000000000101e-01,4.943000000000000000e+03
0.000000000000000000e+00,9.318699999999999761e-01,6.285000000000000000e+03
0.000000000000000000e+00,9.293099999999999694e-01,5.090000000000000000e+02
0.000000000000000000e+00,9.292399999999999549e-01,2.426000000000000000e+03
0.000000000000000000e+00,9.289399999999999880e-01,1.776000000000000000e+03
0.000000000000000000e+00,9.274200000000000221e-01,8.083000000000000000e+03
0.000000000000000000e+00,9.252599999999999714e-01,6.955000000000000000e+03
0.000000000000000000e+00,9.251700000000000479e-01,4.117000000000000000e+03
0.000000000000000000e+00,9.246299999999999519e-01,6.755000000000000000e+03
0.000000000000000000e+00,9.235200000000000076e-01,3.469000000000000000e+03
0.000000000000000000e+00,9.213200000000000278e-01,3.310000000000000000e+03
0.000000000000000000e+00,9.211899999999999533e-01,1.522000000000000000e+03
0.000000000000000000e+00,9.197199999999999820e-01,4.658000000000000000e+03
0.000000000000000000e+00,9.195400000000000240e-01,5.465000000000000000e+03
0.000000000000000000e+00,9.191300000000000026e-01,6.576000000000000000e+03
0.000000000000000000e+00,9.188499999999999446e-01,3.954000000000000000e+03
0.000000000000000000e+00,9.176199999999999912e-01,7.607000000000000000e+03
0.000000000000000000e+00,9.173200000000000243e-01,3.827000000000000000e+03
0.000000000000000000e+00,9.170399999999999663e-01,3.010000000000000000e+02
0.000000000000000000e+00,9.142599999999999616e-01,5.470000000000000000e+03
0.000000000000000000e+00,9.138300000000000312e-01,7.435000000000000000e+03
0.000000000000000000e+00,9.130399999999999627e-01,6.146000000000000000e+03
0.000000000000000000e+00,9.123400000000000398e-01,6.695000000000000000e+03
0.000000000000000000e+00,9.107199999999999740e-01,7.294000000000000000e+03
0.000000000000000000e+00,9.055600000000000316e-01,1.280000000000000000e+02
0.000000000000000000e+00,9.055499999999999661e-01,3.187000000000000000e+03
0.000000000000000000e+00,9.025900000000000034e-01,2.879000000000000000e+03
0.000000000000000000e+00,9.025499999999999634e-01,2.530000000000000000e+02
0.000000000000000000e+00,9.020799999999999930e-01,3.382000000000000000e+03
0.000000000000000000e+00,9.019399999999999640e-01,6.981000000000000000e+03
0.000000000000000000e+00,9.000700000000000367e-01,2.425000000000000000e+03
0.000000000000000000e+00,8.995900000000000007e-01,1.420000000000000000e+03
0.000000000000000000e+00,8.984699999999999909e-01,7.100000000000000000e+03
0.000000000000000000e+00,8.963100000000000511e-01,8.304000000000000000e+03
0.000000000000000000e+00,8.962799999999999656e-01,7.168000000000000000e+03
0.000000000000000000e+00,8.928599999999999870e-01,5.005000000000000000e+03
0.000000000000000000e+00,8.912600000000000522e-01,3.660000000000000000e+03
0.000000000000000000e+00,8.911400000000000432e-01,4.122000000000000000e+03
0.000000000000000000e+00,8.901799999999999713e-01,6.526000000000000000e+03
0.000000000000000000e+00,8.898000000000000353e-01,2.670000000000000000e+02
0.000000000000000000e+00,8.895999999999999464e-01,4.431000000000000000e+03
0.000000000000000000e+00,8.882799999999999585e-01,3.004000000000000000e+03
0.000000000000000000e+00,8.882400000000000295e-01,2.536000000000000000e+03
0.000000000000000000e+00,8.881400000000000405e-01,2.310000000000000000e+02
0.000000000000000000e+00,8.874900000000000011e-01,6.766000000000000000e+03
0.000000000000000000e+00,8.871400000000000396e-01,8.730000000000000000e+02
0.000000000000000000e+00,8.869200000000000417e-01,2.290000000000000000e+03
0.000000000000000000e+00,8.866000000000000547e-01,7.732000000000000000e+03
0.000000000000000000e+00,8.843400000000000150e-01,2.475000000000000000e+03
0.000000000000000000e+00,8.836399999999999810e-01,3.185000000000000000e+03
0.000000000000000000e+00,8.835899999999999865e-01,2.727000000000000000e+03
0.000000000000000000e+00,8.828000000000000291e-01,6.804000000000000000e+03
0.000000000000000000e+00,8.814400000000000013e-01,1.153000000000000000e+03
0.000000000000000000e+00,8.811700000000000088e-01,3.605000000000000000e+03
0.000000000000000000e+00,8.802999999999999714e-01,7.688000000000000000e+03
0.000000000000000000e+00,8.791999999999999815e-01,5.500000000000000000e+03
0.000000000000000000e+00,8.775899999999999812e-01,7.980000000000000000e+02
0.000000000000000000e+00,8.757599999999999829e-01,1.324000000000000000e+03
0.000000000000000000e+00,8.755199999999999649e-01,7.720000000000000000e+02
0.000000000000000000e+00,8.753900000000000015e-01,6.250000000000000000e+02
0.000000000000000000e+00,8.739500000000000046e-01,1.930000000000000000e+03
0.000000000000000000e+00,8.737000000000000322e-01,1.594000000000000000e+03
0.000000000000000000e+00,8.729500000000000037e-01,6.213000000000000000e+03
0.000000000000000000e+00,8.728299999999999947e-01,3.501000000000000000e+03
0.000000000000000000e+00,8.721600000000000463e-01,7.562000000000000000e+03
0.000000000000000000e+00,8.713300000000000489e-01,2.326000000000000000e+03
0.000000000000000000e+00,8.708099999999999730e-01,2.429000000000000000e+03
0.000000000000000000e+00,8.706000000000000405e-01,7.428000000000000000e+03
0.000000000000000000e+00,8.693100000000000271e-01,7.284000000000000000e+03
0.000000000000000000e+00,8.682600000000000318e-01,2.519000000000000000e+03
0.000000000000000000e+00,8.676000000000000378e-01,8.690000000000000000e+02
0.000000000000000000e+00,8.675199999999999578e-01,1.443000000000000000e+03
0.000000000000000000e+00,8.622499999999999609e-01,7.841000000000000000e+03
0.000000000000000000e+00,8.601900000000000102e-01,4.697000000000000000e+03
0.000000000000000000e+00,8.598400000000000487e-01,5.663000000000000000e+03
0.000000000000000000e+00,8.592899999999999983e-01,1.811000000000000000e+03
0.000000000000000000e+00,8.573699999999999655e-01,1.951000000000000000e+03
0.000000000000000000e+00,8.558999999999999941e-01,7.206000000000000000e+03
0.000000000000000000e+00,8.538999999999999924e-01,4.560000000000000000e+02
0.000000000000000000e+00,8.533300000000000329e-01,1.244000000000000000e+03
0.000000000000000000e+00,8.527799999999999825e-01,2.611000000000000000e+03
0.000000000000000000e+00,8.512999999999999456e-01,4.320000000000000000e+02
0.000000000000000000e+00,8.510900000000000132e-01,8.294000000000000000e+03
0.000000000000000000e+00,8.501699999999999813e-01,1.747000000000000000e+03
0.000000000000000000e+00,8.490100000000000424e-01,7.766000000000000000e+03
0.000000000000000000e+00,8.477000000000000091e-01,2.250000000000000000e+02
0.000000000000000000e+00,8.474300000000000166e-01,6.627000000000000000e+03
0.000000000000000000e+00,8.473800000000000221e-01,8.305000000000000000e+03
0.000000000000000000e+00,8.442300000000000360e-01,6.970000000000000000e+03
0.000000000000000000e+00,8.429100000000000481e-01,5.817000000000000000e+03
0.000000000000000000e+00,8.427799999999999736e-01,6.736000000000000000e+03
0.000000000000000000e+00,8.426099999999999701e-01,8.279000000000000000e+03
0.000000000000000000e+00,8.424399999999999666e-01,7.554000000000000000e+03
0.000000000000000000e+00,8.417900000000000382e-01,1.691000000000000000e+03
0.000000000000000000e+00,8.415899999999999492e-01,4.508000000000000000e+03
0.000000000000000000e+00,8.411899999999999933e-01,1.342000000000000000e+03
0.000000000000000000e+00,8.411100000000000243e-01,4.272000000000000000e+03
0.000000000000000000e+00,8.407799999999999718e-01,1.313000000000000000e+03
0.000000000000000000e+00,8.397700000000000164e-01,2.493000000000000000e+03
0.000000000000000000e+00,8.396900000000000475e-01,6.551000000000000000e+03
0.000000000000000000e+00,8.394099999999999895e-01,7.092000000000000000e+03
0.000000000000000000e+00,8.390699999999999825e-01,4.942000000000000000e+03
0.000000000000000000e+00,8.390199999999999880e-01,8.500000000000000000e+03
0.000000000000000000e+00,8.357099999999999529e-01,4.299000000000000000e+03
0.000000000000000000e+00,8.354300000000000059e-01,7.390000000000000000e+02
0.000000000000000000e+00,8.353199999999999514e-01,5.000000000000000000e+00
0.000000000000000000e+00,8.313000000000000389e-01,5.420000000000000000e+02
0.000000000000000000e+00,8.310600000000000209e-01,1.450000000000000000e+03
0.000000000000000000e+00,8.303700000000000525e-01,7.224000000000000000e+03
0.000000000000000000e+00,8.296000000000000041e-01,1.386000000000000000e+03
0.000000000000000000e+00,8.294399999999999551e-01,4.220000000000000000e+02
0.000000000000000000e+00,8.293899999999999606e-01,1.303000000000000000e+03
0.000000000000000000e+00,8.293800000000000061e-01,1.010000000000000000e+02
0.000000000000000000e+00,8.284000000000000252e-01,1.395000000000000000e+03
0.000000000000000000e+00,8.274299999999999988e-01,4.905000000000000000e+03
0.000000000000000000e+00,8.271600000000000064e-01,5.775000000000000000e+03
0.000000000000000000e+00,8.270699999999999719e-01,4.390000000000000000e+02
0.000000000000000000e+00,8.263599999999999834e-01,7.285000000000000000e+03
0.000000000000000000e+00,8.261800000000000255e-01,3.863000000000000000e+03
0.000000000000000000e+00,8.253800000000000026e-01,3.295000000000000000e+03
0.000000000000000000e+00,8.251500000000000501e-01,3.629000000000000000e+03
0.000000000000000000e+00,8.245099999999999651e-01,7.898000000000000000e+03
0.000000000000000000e+00,8.229300000000000503e-01,3.126000000000000000e+03
0.000000000000000000e+00,8.226200000000000179e-01,8.523000000000000000e+03
0.000000000000000000e+00,8.218600000000000350e-01,5.459000000000000000e+03
0.000000000000000000e+00,8.217999999999999750e-01,3.161000000000000000e+03
0.000000000000000000e+00,8.215599999999999570e-01,7.896000000000000000e+03
0.000000000000000000e+00,8.199999999999999512e-01,2.224000000000000000e+03
0.000000000000000000e+00,8.187999999999999723e-01,3.502000000000000000e+03
0.000000000000000000e+00,8.174900000000000500e-01,3.246000000000000000e+03
0.000000000000000000e+00,8.152700000000000502e-01,9.510000000000000000e+02
0.000000000000000000e+00,8.151800000000000157e-01,2.160000000000000000e+02
0.000000000000000000e+00,8.140199999999999658e-01,6.545000000000000000e+03
0.000000000000000000e+00,8.129699999999999704e-01,5.119000000000000000e+03
0.000000000000000000e+00,8.118300000000000516e-01,5.138000000000000000e+03
0.000000000000000000e+00,8.114999999999999991e-01,3.671000000000000000e+03
0.000000000000000000e+00,8.104500000000000037e-01,7.101000000000000000e+03
0.000000000000000000e+00,8.098999999999999533e-01,5.043000000000000000e+03
0.000000000000000000e+00,8.094599999999999573e-01,2.279000000000000000e+03
0.000000000000000000e+00,8.076400000000000245e-01,1.013000000000000000e+03
0.000000000000000000e+00,8.068899999999999961e-01,6.676000000000000000e+03
0.000000000000000000e+00,8.050000000000000488e-01,1.831000000000000000e+03
0.000000000000000000e+00,8.039600000000000080e-01,5.955000000000000000e+03
0.000000000000000000e+00,8.034900000000000375e-01,7.256000000000000000e+03
0.000000000000000000e+00,7.989000000000000545e-01,4.596000000000000000e+03
0.000000000000000000e+00,7.984099999999999531e-01,7.822000000000000000e+03
0.000000000000000000e+00,7.983799999999999786e-01,6.725000000000000000e+03
0.000000000000000000e+00,7.977100000000000302e-01,1.642000000000000000e+03
0.000000000000000000e+00,7.971399999999999597e-01,8.290000000000000000e+03
0.000000000000000000e+00,7.965600000000000458e-01,7.656000000000000000e+03
0.000000000000000000e+00,7.931799999999999962e-01,4.128000000000000000e+03
0.000000000000000000e+00,7.924200000000000133e-01,3.012000000000000000e+03
0.000000000000000000e+00,7.903200000000000225e-01,3.055000000000000000e+03
0.000000000000000000e+00,7.885199999999999987e-01,4.861000000000000000e+03
0.000000000000000000e+00,7.871799999999999908e-01,5.431000000000000000e+03
0.000000000000000000e+00,7.862000000000000099e-01,3.905000000000000000e+03
0.000000000000000000e+00,7.849699999999999456e-01,8.025000000000000000e+03
0.000000000000000000e+00,7.845699999999999896e-01,7.924000000000000000e+03
0.000000000000000000e+00,7.841399999999999482e-01,7.093000000000000000e+03
0.000000000000000000e+00,7.819800000000000084e-01,8.880000000000000000e+02
0.000000000000000000e+00,7.810000000000000275e-01,4.816000000000000000e+03
0.000000000000000000e+00,7.795800000000000507e-01,2.047000000000000000e+03
0.000000000000000000e+00,7.780700000000000394e-01,6.690000000000000000e+03
0.000000000000000000e+00,7.768100000000000005e-01,3.437000000000000000e+03
0.000000000000000000e+00,7.760000000000000231e-01,2.722000000000000000e+03
0.000000000000000000e+00,7.725600000000000245e-01,4.936000000000000000e+03
0.000000000000000000e+00,7.721000000000000085e-01,5.564000000000000000e+03
0.000000000000000000e+00,7.707000000000000517e-01,7.118000000000000000e+03
0.000000000000000000e+00,7.702499999999999902e-01,9.640000000000000000e+02
0.000000000000000000e+00,7.689399999999999569e-01,2.460000000000000000e+03
0.000000000000000000e+00,7.688899999999999624e-01,8.466000000000000000e+03
0.000000000000000000e+00,7.687699999999999534e-01,2.150000000000000000e+03
0.000000000000000000e+00,7.686399999999999899e-01,7.122000000000000000e+03
0.000000000000000000e+00,7.658800000000000052e-01,7.710000000000000000e+03
0.000000000000000000e+00,7.651900000000000368e-01,7.253000000000000000e+03
0.000000000000000000e+00,7.639399999999999524e-01,7.950000000000000000e+02
0.000000000000000000e+00,7.630799999999999805e-01,7.028000000000000000e+03
0.000000000000000000e+00,7.625199999999999756e-01,7.873000000000000000e+03
0.000000000000000000e+00,7.624300000000000521e-01,1.614000000000000000e+03
0.000000000000000000e+00,7.601499999999999924e-01,4.220000000000000000e+03
0.000000000000000000e+00,7.588500000000000245e-01,2.402000000000000000e+03
0.000000000000000000e+00,7.575100000000000167e-01,4.383000000000000000e+03
0.000000000000000000e+00,7.564199999999999813e-01,6.493000000000000000e+03
0.000000000000000000e+00,7.550799999999999734e-01,4.320000000000000000e+03
0.000000000000000000e+00,7.550499999999999989e-01,5.228000000000000000e+03
0.000000000000000000e+00,7.531499999999999861e-01,6.991000000000000000e+03
0.000000000000000000e+00,7.529000000000000137e-01,6.423000000000000000e+03
0.000000000000000000e+00,7.523300000000000542e-01,6.397000000000000000e+03
0.000000000000000000e+00,7.523100000000000342e-01,8.371000000000000000e+03
0.000000000000000000e+00,7.509700000000000264e-01,3.657000000000000000e+03
0.000000000000000000e+00,7.502499999999999725e-01,7.600000000000000000e+03
0.000000000000000000e+00,7.495300000000000296e-01,6.245000000000000000e+03
0.000000000000000000e+00,7.493800000000000461e-01,1.052000000000000000e+03
0.000000000000000000e+00,7.480200000000000182e-01,5.059000000000000000e+03
0.000000000000000000e+00,7.478700000000000347e-01,7.270000000000000000e+03
0.000000000000000000e+00,7.478000000000000203e-01,3.319000000000000000e+03
1.000000000000000000e+00,9.919499999999999984e-01,4.132000000000000000e+03
1.000000000000000000e+00,9.918599999999999639e-01,4.492000000000000000e+03
1.000000000000000000e+00,9.915300000000000225e-01,3.865000000000000000e+03
1.000000000000000000e+00,9.914500000000000535e-01,3.694000000000000000e+03
1.000000000000000000e+00,9.908799999999999830e-01,3.402000000000000000e+03
1.000000000000000000e+00,9.903100000000000236e-01,1.889000000000000000e+03
1.000000000000000000e+00,9.899599999999999511e-01,1.010000000000000000e+03
1.000000000000000000e+00,9.893899999999999917e-01,2.260000000000000000e+02
1.000000000000000000e+00,9.892699999999999827e-01,7.599000000000000000e+03
1.000000000000000000e+00,9.889799999999999702e-01,6.604000000000000000e+03
1.000000000000000000e+00,9.889200000000000212e-01,2.831000000000000000e+03
1.000000000000000000e+00,9.885599999999999943e-01,5.024000000000000000e+03
1.000000000000000000e+00,9.884699999999999598e-01,3.302000000000000000e+03
1.000000000000000000e+00,9.883499999999999508e-01,4.868000000000000000e+03
1.000000000000000000e+00,9.881299999999999528e-01,9.500000000000000000e+02
1.000000000000000000e+00,9.880499999999999838e-01,8.270000000000000000e+03
1.000000000000000000e+00,9.880200000000000093e-01,1.687000000000000000e+03
1.000000000000000000e+00,9.877299999999999969e-01,3.561000000000000000e+03
1.000000000000000000e+00,9.875800000000000134e-01,4.368000000000000000e+03
1.000000000000000000e+00,9.874699999999999589e-01,7.663000000000000000e+03
1.000000000000000000e+00,9.873100000000000209e-01,8.430000000000000000e+03
1.000000000000000000e+00,9.872199999999999864e-01,7.216000000000000000e+03
1.000000000000000000e+00,9.871900000000000119e-01,4.883000000000000000e+03
1.000000000000000000e+00,9.870499999999999829e-01,4.333000000000000000e+03
1.000000000000000000e+00,9.870299999999999629e-01,2.144000000000000000e+03
1.000000000000000000e+00,9.869200000000000195e-01,8.151000000000000000e+03
1.000000000000000000e+00,9.868700000000000250e-01,5.623000000000000000e+03
1.000000000000000000e+00,9.867299999999999960e-01,3.067000000000000000e+03
1.000000000000000000e+00,9.863600000000000145e-01,5.737000000000000000e+03
1.000000000000000000e+00,9.863199999999999745e-01,1.735000000000000000e+03
1.000000000000000000e+00,9.861100000000000421e-01,1.000000000000000000e+01
1.000000000000000000e+00,9.860900000000000221e-01,3.559000000000000000e+03
1.000000000000000000e+00,9.857900000000000551e-01,8.366000000000000000e+03
1.000000000000000000e+00,9.857599999999999696e-01,1.086000000000000000e+03
1.000000000000000000e+00,9.853300000000000392e-01,2.720000000000000000e+02
1.000000000000000000e+00,9.852999999999999536e-01,4.046000000000000000e+03
1.000000000000000000e+00,9.850499999999999812e-01,8.580000000000000000e+02
1.000000000000000000e+00,9.849400000000000377e-01,4.233000000000000000e+03
1.000000000000000000e+00,9.849099999999999522e-01,3.431000000000000000e+03
1.000000000000000000e+00,9.848700000000000232e-01,1.415000000000000000e+03
1.000000000000000000e+00,9.848500000000000032e-01,4.111000000000000000e+03
1.000000000000000000e+00,9.845800000000000107e-01,8.379000000000000000e+03
1.000000000000000000e+00,9.845199999999999507e-01,5.303000000000000000e+03
1.000000000000000000e+00,9.845000000000000417e-01,5.964000000000000000e+03
1.000000000000000000e+00,9.843499999999999472e-01,6.283000000000000000e+03
1.000000000000000000e+00,9.843399999999999928e-01,1.802000000000000000e+03
1.000000000000000000e+00,9.842100000000000293e-01,6.255000000000000000e+03
1.000000000000000000e+00,9.841199999999999948e-01,5.530000000000000000e+02
1.000000000000000000e+00,9.839799999999999658e-01,6.943000000000000000e+03
1.000000000000000000e+00,9.838200000000000278e-01,7.317000000000000000e+03
1.000000000000000000e+00,9.837399999999999478e-01,5.422000000000000000e+03
1.000000000000000000e+00,9.834600000000000009e-01,3.754000000000000000e+03
1.000000000000000000e+00,9.834300000000000264e-01,7.824000000000000000e+03
1.000000000000000000e+00,9.834100000000000064e-01,2.737000000000000000e+03
1.000000000000000000e+00,9.833899999999999864e-01,7.131000000000000000e+03
1.000000000000000000e+00,9.833600000000000119e-01,3.825000000000000000e+03
1.000000000000000000e+00,9.833399999999999919e-01,1.232000000000000000e+03
1.000000000000000000e+00,9.832499999999999574e-01,4.515000000000000000e+03
1.000000000000000000e+00,9.831600000000000339e-01,8.198000000000000000e+03
1.000000000000000000e+00,9.830999999999999739e-01,4.193000000000000000e+03
1.000000000000000000e+00,9.830299999999999594e-01,6.598000000000000000e+03
1.000000000000000000e+00,9.830200000000000049e-01,8.347000000000000000e+03
1.000000000000000000e+00,9.829200000000000159e-01,1.300000000000000000e+02
1.000000000000000000e+00,9.829099999999999504e-01,9.490000000000000000e+02
1.000000000000000000e+00,9.828400000000000469e-01,7.805000000000000000e+03
1.000000000000000000e+00,9.828400000000000469e-01,6.313000000000000000e+03
1.000000000000000000e+00,9.827700000000000324e-01,5.662000000000000000e+03
1.000000000000000000e+00,9.826899999999999524e-01,1.956000000000000000e+03
1.000000000000000000e+00,9.826799999999999979e-01,1.756000000000000000e+03
1.000000000000000000e+00,9.825800000000000090e-01,9.470000000000000000e+02
1.000000000000000000e+00,9.825700000000000545e-01,2.779000000000000000e+03
1.000000000000000000e+00,9.825599999999999890e-01,2.950000000000000000e+03
1.000000000000000000e+00,9.825099999999999945e-01,8.094000000000000000e+03
1.000000000000000000e+00,9.823300000000000365e-01,3.787000000000000000e+03
1.000000000000000000e+00,9.821800000000000530e-01,6.974000000000000000e+03
1.000000000000000000e+00,9.820600000000000440e-01,1.730000000000000000e+03
1.000000000000000000e+00,9.818900000000000405e-01,6.617000000000000000e+03
1.000000000000000000e+00,9.818400000000000460e-01,5.326000000000000000e+03
1.000000000000000000e+00,9.818099999999999605e-01,2.079000000000000000e+03
1.000000000000000000e+00,9.816899999999999515e-01,3.020000000000000000e+02
1.000000000000000000e+00,9.816700000000000426e-01,5.461000000000000000e+03
1.000000000000000000e+00,9.816099999999999826e-01,2.131000000000000000e+03
1.000000000000000000e+00,9.815099999999999936e-01,3.520000000000000000e+03
1.000000000000000000e+00,9.814899999999999736e-01,6.913000000000000000e+03
1.000000000000000000e+00,9.813600000000000101e-01,4.298000000000000000e+03
1.000000000000000000e+00,9.812999999999999501e-01,1.195000000000000000e+03
1.000000000000000000e+00,9.812600000000000211e-01,2.198000000000000000e+03
1.000000000000000000e+00,9.812199999999999811e-01,6.601000000000000000e+03
1.000000000000000000e+00,9.812100000000000266e-01,7.910000000000000000e+02
1.000000000000000000e+00,9.811699999999999866e-01,8.528000000000000000e+03
1.000000000000000000e+00,9.811299999999999466e-01,5.060000000000000000e+02
1.000000000000000000e+00,9.809700000000000086e-01,3.883000000000000000e+03
1.000000000000000000e+00,9.809600000000000541e-01,6.256000000000000000e+03
1.000000000000000000e+00,9.809499999999999886e-01,5.577000000000000000e+03
1.000000000000000000e+00,9.809400000000000341e-01,2.297000000000000000e+03
1.000000000000000000e+00,9.808099999999999596e-01,5.117000000000000000e+03
1.000000000000000000e+00,9.807399999999999451e-01,7.634000000000000000e+03
1.000000000000000000e+00,9.806799999999999962e-01,6.096000000000000000e+03
1.000000000000000000e+00,9.806099999999999817e-01,2.721000000000000000e+03
1.000000000000000000e+00,9.806099999999999817e-01,5.752000000000000000e+03
1.000000000000000000e+00,9.805899999999999617e-01,4.487000000000000000e+03
1.000000000000000000e+00,9.805300000000000127e-01,7.176000000000000000e+03
1.000000000000000000e+00,9.805099999999999927e-01,5.891000000000000000e+03
1.000000000000000000e+00,9.802400000000000002e-01,4.350000000000000000e+02
1.000000000000000000e+00,9.802100000000000257e-01,1.708000000000000000e+03
1.000000000000000000e+00,9.801800000000000512e-01,3.753000000000000000e+03
1.000000000000000000e+00,9.800900000000000167e-01,4.884000000000000000e+03
1.000000000000000000e+00,9.800699999999999967e-01,6.592000000000000000e+03
1.000000000000000000e+00,9.800600000000000422e-01,4.340000000000000000e+03
1.000000000000000000e+00,9.800499999999999767e-01,4.752000000000000000e+03
1.000000000000000000e+00,9.800100000000000477e-01,5.439000000000000000e+03
1.000000000000000000e+00,9.799299999999999677e-01,3.715000000000000000e+03
1.000000000000000000e+00,9.799200000000000133e-01,6.468000000000000000e+03
1.000000000000000000e+00,9.798400000000000443e-01,8.109000000000000000e+03
1.000000000000000000e+00,9.798000000000000043e-01,3.284000000000000000e+03
1.000000000000000000e+00,9.796000000000000263e-01,5.128000000000000000e+03
1.000000000000000000e+00,9.795199999999999463e-01,3.226000000000000000e+03
1.000000000000000000e+00,9.792600000000000193e-01,2.317000000000000000e+03
1.000000000000000000e+00,9.792100000000000248e-01,4.851000000000000000e+03
1.000000000000000000e+00,9.791800000000000503e-01,7.402000000000000000e+03
1.000000000000000000e+00,9.791600000000000303e-01,6.883000000000000000e+03
1.000000000000000000e+00,9.789700000000000069e-01,6.309000000000000000e+03
1.000000000000000000e+00,9.788999999999999924e-01,8.341000000000000000e+03
1.000000000000000000e+00,9.788299999999999779e-01,2.371000000000000000e+03
1.000000000000000000e+00,9.788200000000000234e-01,6.788000000000000000e+03
1.000000000000000000e+00,9.787700000000000289e-01,3.952000000000000000e+03
1.000000000000000000e+00,9.786799999999999944e-01,1.050000000000000000e+02
1.000000000000000000e+00,9.786299999999999999e-01,5.259000000000000000e+03
1.000000000000000000e+00,9.785500000000000309e-01,2.620000000000000000e+03
1.000000000000000000e+00,9.785399999999999654e-01,4.940000000000000000e+03
1.000000000000000000e+00,9.785199999999999454e-01,2.897000000000000000e+03
1.000000000000000000e+00,9.785099999999999909e-01,8.238000000000000000e+03
1.000000000000000000e+00,9.784199999999999564e-01,5.317000000000000000e+03
1.000000000000000000e+00,9.784199999999999564e-01,1.698000000000000000e+03
1.000000000000000000e+00,9.783699999999999619e-01,3.961000000000000000e+03
1.000000000000000000e+00,9.783500000000000529e-01,6.599000000000000000e+03
1.000000000000000000e+00,9.782899999999999929e-01,7.053000000000000000e+03
1.000000000000000000e+00,9.782699999999999729e-01,4.035000000000000000e+03
1.000000000000000000e+00,9.780499999999999750e-01,8.465000000000000000e+03
1.000000000000000000e+00,9.780299999999999550e-01,4.860000000000000000e+03
1.000000000000000000e+00,9.779600000000000515e-01,4.650000000000000000e+03
1.000000000000000000e+00,9.779299999999999660e-01,1.922000000000000000e+03
1.000000000000000000e+00,9.778799999999999715e-01,6.643000000000000000e+03
1.000000000000000000e+00,9.778700000000000170e-01,8.169000000000000000e+03
1.000000000000000000e+00,9.778700000000000170e-01,5.075000000000000000e+03
1.000000000000000000e+00,9.778299999999999770e-01,2.816000000000000000e+03
1.000000000000000000e+00,9.778000000000000025e-01,4.997000000000000000e+03
1.000000000000000000e+00,9.777299999999999880e-01,3.795000000000000000e+03
1.000000000000000000e+00,9.776500000000000190e-01,1.399000000000000000e+03
1.000000000000000000e+00,9.775800000000000045e-01,6.952000000000000000e+03
1.000000000000000000e+00,9.775000000000000355e-01,2.507000000000000000e+03
1.000000000000000000e+00,9.774899999999999700e-01,3.040000000000000000e+03
1.000000000000000000e+00,9.774100000000000010e-01,7.503000000000000000e+03
1.000000000000000000e+00,9.773800000000000265e-01,5.126000000000000000e+03
1.000000000000000000e+00,9.773699999999999610e-01,7.639000000000000000e+03
1.000000000000000000e+00,9.773600000000000065e-01,8.072000000000000000e+03
1.000000000000000000e+00,9.773500000000000520e-01,3.710000000000000000e+02
1.000000000000000000e+00,9.772999999999999465e-01,2.220000000000000000e+03
1.000000000000000000e+00,9.772899999999999920e-01,9.220000000000000000e+02
1.000000000000000000e+00,9.771699999999999831e-01,1.426000000000000000e+03
1.000000000000000000e+00,9.770999999999999686e-01,8.006000000000000000e+03
1.000000000000000000e+00,9.770400000000000196e-01,8.390000000000000000e+03
1.000000000000000000e+00,9.770100000000000451e-01,2.579000000000000000e+03
1.000000000000000000e+00,9.768900000000000361e-01,3.479000000000000000e+03
1.000000000000000000e+00,9.768400000000000416e-01,1.790000000000000000e+02
1.000000000000000000e+00,9.768000000000000016e-01,7.375000000000000000e+03
1.000000000000000000e+00,9.768000000000000016e-01,3.520000000000000000e+02
1.000000000000000000e+00,9.767500000000000071e-01,4.347000000000000000e+03
1.000000000000000000e+00,9.767400000000000526e-01,3.388000000000000000e+03
1.000000000000000000e+00,9.767400000000000526e-01,1.497000000000000000e+03
1.000000000000000000e+00,9.767000000000000126e-01,5.069000000000000000e+03
1.000000000000000000e+00,9.766799999999999926e-01,5.808000000000000000e+03
1.000000000000000000e+00,9.765300000000000091e-01,6.068000000000000000e+03
1.000000000000000000e+00,9.764899999999999691e-01,5.106000000000000000e+03
1.000000000000000000e+00,9.764599999999999946e-01,3.676000000000000000e+03
1.000000000000000000e+00,9.763699999999999601e-01,3.700000000000000000e+03
1.000000000000000000e+00,9.763600000000000056e-01,2.018000000000000000e+03
1.000000000000000000e+00,9.762399999999999967e-01,3.558000000000000000e+03
1.000000000000000000e+00,9.761900000000000022e-01,4.161000000000000000e+03
1.000000000000000000e+00,9.760799999999999477e-01,8.250000000000000000e+02
1.000000000000000000e+00,9.760499999999999732e-01,1.601000000000000000e+03
1.000000000000000000e+00,9.760400000000000187e-01,2.148000000000000000e+03
1.000000000000000000e+00,9.760400000000000187e-01,3.465000000000000000e+03
1.000000000000000000e+00,9.760299999999999532e-01,3.426000000000000000e+03
1.000000000000000000e+00,9.760199999999999987e-01,1.967000000000000000e+03
1.000000000000000000e+00,9.760100000000000442e-01,2.916000000000000000e+03
1.000000000000000000e+00,9.758900000000000352e-01,7.886000000000000000e+03
1.000000000000000000e+00,9.758299999999999752e-01,1.430000000000000000e+03
1.000000000000000000e+00,9.758099999999999552e-01,3.553000000000000000e+03
1.000000000000000000e+00,9.757500000000000062e-01,8.461000000000000000e+03
1.000000000000000000e+00,9.757400000000000517e-01,3.040000000000000000e+02
1.000000000000000000e+00,9.756599999999999717e-01,2.931000000000000000e+03
1.000000000000000000e+00,9.755800000000000027e-01,2.651000000000000000e+03
1.000000000000000000e+00,9.755800000000000027e-01,3.992000000000000000e+03
1.000000000000000000e+00,9.755399999999999627e-01,4.160000000000000000e+02
1.000000000000000000e+00,9.754199999999999537e-01,8.075000000000000000e+03
1.000000000000000000e+00,9.753600000000000048e-01,3.640000000000000000e+02
1.000000000000000000e+00,9.753100000000000103e-01,2.890000000000000000e+02
1.000000000000000000e+00,9.752300000000000413e-01,4.935000000000000000e+03
1.000000000000000000e+00,9.751199999999999868e-01,3.824000000000000000e+03
1.000000000000000000e+00,9.751199999999999868e-01,1.097000000000000000e+03
1.000000000000000000e+00,9.750699999999999923e-01,1.963000000000000000e+03
1.000000000000000000e+00,9.750400000000000178e-01,2.376000000000000000e+03
1.000000000000000000e+00,9.750299999999999523e-01,3.125000000000000000e+03
1.000000000000000000e+00,9.747999999999999998e-01,7.349000000000000000e+03
1.000000000000000000e+00,9.747900000000000453e-01,5.035000000000000000e+03
1.000000000000000000e+00,9.747599999999999598e-01,7.048000000000000000e+03
1.000000000000000000e+00,9.747299999999999853e-01,4.603000000000000000e+03
1.000000000000000000e+00,9.747200000000000308e-01,6.875000000000000000e+03
1.000000000000000000e+00,9.746700000000000363e-01,5.532000000000000000e+03
1.000000000000000000e+00,9.746299999999999963e-01,2.526000000000000000e+03
1.000000000000000000e+00,9.746200000000000419e-01,8.480000000000000000e+03
1.000000000000000000e+00,9.745800000000000018e-01,6.026000000000000000e+03
1.000000000000000000e+00,9.745200000000000529e-01,4.790000000000000000e+03
1.000000000000000000e+00,9.745099999999999874e-01,7.783000000000000000e+03
1.000000000000000000e+00,9.743199999999999639e-01,2.287000000000000000e+03
1.000000000000000000e+00,9.741199999999999859e-01,6.470000000000000000e+02
1.000000000000000000e+00,9.740699999999999914e-01,5.672000000000000000e+03
1.000000000000000000e+00,9.740699999999999914e-01,6.563000000000000000e+03
1.000000000000000000e+00,9.740499999999999714e-01,7.635000000000000000e+03
1.000000000000000000e+00,9.740299999999999514e-01,6.171000000000000000e+03
1.000000000000000000e+00,9.740299999999999514e-01,4.880000000000000000e+03
1.000000000000000000e+00,9.740199999999999969e-01,6.018000000000000000e+03
1.000000000000000000e+00,9.740100000000000424e-01,6.830000000000000000e+02
1.000000000000000000e+00,9.739600000000000479e-01,3.743000000000000000e+03
1.000000000000000000e+00,9.739600000000000479e-01,3.093000000000000000e+03
1.000000000000000000e+00,9.739400000000000279e-01,4.461000000000000000e+03
1.000000000000000000e+00,9.739400000000000279e-01,6.674000000000000000e+03
1.000000000000000000e+00,9.739100000000000534e-01,1.666000000000000000e+03
1.000000000000000000e+00,9.738700000000000134e-01,5.529000000000000000e+03
1.000000000000000000e+00,9.738400000000000389e-01,4.281000000000000000e+03
1.000000000000000000e+00,9.737900000000000444e-01,3.487000000000000000e+03
1.000000000000000000e+00,9.737299999999999844e-01,6.566000000000000000e+03
1.000000000000000000e+00,9.737200000000000299e-01,2.935000000000000000e+03
1.000000000000000000e+00,9.736000000000000210e-01,6.645000000000000000e+03
1.000000000000000000e+00,9.735200000000000520e-01,6.445000000000000000e+03
1.000000000000000000e+00,9.734800000000000120e-01,2.339000000000000000e+03
1.000000000000000000e+00,9.734399999999999720e-01,8.290000000000000000e+02
1.000000000000000000e+00,9.734099999999999975e-01,4.051000000000000000e+03
1.000000000000000000e+00,9.733699999999999575e-01,1.368000000000000000e+03
1.000000000000000000e+00,9.733600000000000030e-01,2.352000000000000000e+03
1.000000000000000000e+00,9.732300000000000395e-01,8.224000000000000000e+03
1.000000000000000000e+00,9.732100000000000195e-01,3.029000000000000000e+03
1.000000000000000000e+00,9.731999999999999540e-01,1.012000000000000000e+03
1.000000000000000000e+00,9.731499999999999595e-01,3.943000000000000000e+03
1.000000000000000000e+00,9.731400000000000050e-01,4.713000000000000000e+03
1.000000000000000000e+00,9.731199999999999850e-01,4.213000000000000000e+03
1.000000000000000000e+00,9.731100000000000305e-01,6.597000000000000000e+03
1.000000000000000000e+00,9.730699999999999905e-01,4.634000000000000000e+03
1.000000000000000000e+00,9.730499999999999705e-01,7.342000000000000000e+03
1.000000000000000000e+00,9.730199999999999960e-01,4.690000000000000000e+02
1.000000000000000000e+00,9.729799999999999560e-01,6.810000000000000000e+03
1.000000000000000000e+00,9.729200000000000070e-01,5.100000000000000000e+01
1.000000000000000000e+00,9.729200000000000070e-01,7.380000000000000000e+02
1.000000000000000000e+00,9.729100000000000525e-01,5.883000000000000000e+03
2.000000000000000000e+00,9.958700000000000330e-01,2.202000000000000000e+03
2.000000000000000000e+00,9.956500000000000350e-01,3.683000000000000000e+03
2.000000000000000000e+00,9.943600000000000216e-01,8.060000000000000000e+03
2.000000000000000000e+00,9.928399999999999448e-01,2.316000000000000000e+03
2.000000000000000000e+00,9.912199999999999900e-01,2.697000000000000000e+03
2.000000000000000000e+00,9.888500000000000068e-01,7.162000000000000000e+03
2.000000000000000000e+00,9.885300000000000198e-01,5.016000000000000000e+03
2.000000000000000000e+00,9.881699999999999928e-01,1.345000000000000000e+03
2.000000000000000000e+00,9.867599999999999705e-01,8.241000000000000000e+03
2.000000000000000000e+00,9.863800000000000345e-01,5.542000000000000000e+03
2.000000000000000000e+00,9.857000000000000206e-01,1.586000000000000000e+03
2.000000000000000000e+00,9.854899999999999771e-01,7.564000000000000000e+03
2.000000000000000000e+00,9.854300000000000281e-01,7.938000000000000000e+03
2.000000000000000000e+00,9.853800000000000336e-01,4.750000000000000000e+03
2.000000000000000000e+00,9.851199999999999957e-01,2.748000000000000000e+03
2.000000000000000000e+00,9.848000000000000087e-01,8.920000000000000000e+02
2.000000000000000000e+00,9.844899999999999762e-01,5.760000000000000000e+03
2.000000000000000000e+00,9.839900000000000313e-01,7.633000000000000000e+03
2.000000000000000000e+00,9.839900000000000313e-01,5.840000000000000000e+03
2.000000000000000000e+00,9.839599999999999458e-01,7.017000000000000000e+03
2.000000000000000000e+00,9.836399999999999588e-01,6.554000000000000000e+03
2.000000000000000000e+00,9.830799999999999539e-01,1.737000000000000000e+03
2.000000000000000000e+00,9.819999999999999840e-01,4.960000000000000000e+03
2.000000000000000000e+00,9.816500000000000226e-01,1.649000000000000000e+03
2.000000000000000000e+00,9.808799999999999741e-01,7.940000000000000000e+03
2.000000000000000000e+00,9.802699999999999747e-01,7.177000000000000000e+03
2.000000000000000000e+00,9.802499999999999547e-01,7.779000000000000000e+03
2.000000000000000000e+00,9.798499999999999988e-01,5.217000000000000000e+03
2.000000000000000000e+00,9.795800000000000063e-01,7.880000000000000000e+02
2.000000000000000000e+00,9.783800000000000274e-01,1.154000000000000000e+03
2.000000000000000000e+00,9.780499999999999750e-01,5.720000000000000000e+02
2.000000000000000000e+00,9.772300000000000431e-01,6.500000000000000000e+01
2.000000000000000000e+00,9.771800000000000486e-01,1.676000000000000000e+03
2.000000000000000000e+00,9.767099999999999671e-01,3.083000000000000000e+03
2.000000000000000000e+00,9.757599999999999607e-01,1.461000000000000000e+03
2.000000000000000000e+00,9.739499999999999824e-01,4.610000000000000000e+02
2.000000000000000000e+00,9.737000000000000099e-01,5.442000000000000000e+03
2.000000000000000000e+00,9.731300000000000505e-01,8.388000000000000000e+03
2.000000000000000000e+00,9.729499999999999815e-01,1.581000000000000000e+03
2.000000000000000000e+00,9.729400000000000270e-01,5.110000000000000000e+02
2.000000000000000000e+00,9.724899999999999656e-01,1.334000000000000000e+03
2.000000000000000000e+00,9.719299999999999606e-01,2.780000000000000000e+03
2.000000000000000000e+00,9.719299999999999606e-01,7.890000000000000000e+02
2.000000000000000000e+00,9.708499999999999908e-01,9.140000000000000000e+02
2.000000000000000000e+00,9.702100000000000168e-01,6.996000000000000000e+03
2.000000000000000000e+00,9.700800000000000534e-01,7.159000000000000000e+03
2.000000000000000000e+00,9.671699999999999742e-01,1.418000000000000000e+03
2.000000000000000000e+00,9.664300000000000113e-01,2.024000000000000000e+03
2.000000000000000000e+00,9.660900000000000043e-01,5.838000000000000000e+03
2.000000000000000000e+00,9.637200000000000211e-01,6.005000000000000000e+03
2.000000000000000000e+00,9.632800000000000251e-01,8.479000000000000000e+03
2.000000000000000000e+00,9.625299999999999967e-01,6.440000000000000000e+03
2.000000000000000000e+00,9.616099999999999648e-01,1.722000000000000000e+03
2.000000000000000000e+00,9.615599999999999703e-01,4.557000000000000000e+03
2.000000000000000000e+00,9.612399999999999833e-01,4.838000000000000000e+03
2.000000000000000000e+00,9.612100000000000088e-01,6.870000000000000000e+02
2.000000000000000000e+00,9.610100000000000309e-01,6.490000000000000000e+02
2.000000000000000000e+00,9.604099999999999859e-01,7.208000000000000000e+03
2.000000000000000000e+00,9.603800000000000114e-01,6.042000000000000000e+03
2.000000000000000000e+00,9.602899999999999769e-01,6.808000000000000000e+03
2.000000000000000000e+00,9.601100000000000190e-01,6.799000000000000000e+03
2.000000000000000000e+00,9.595200000000000395e-01,1.651000000000000000e+03
2.000000000000000000e+00,9.590699999999999781e-01,3.148000000000000000e+03
2.000000000000000000e+00,9.590300000000000491e-01,8.036000000000000000e+03
2.000000000000000000e+00,9.585399999999999476e-01,7.171000000000000000e+03
2.000000000000000000e+00,9.582899999999999752e-01,2.798000000000000000e+03
2.000000000000000000e+00,9.581199999999999717e-01,1.152000000000000000e+03
2.000000000000000000e+00,9.579400000000000137e-01,3.840000000000000000e+02
2.000000000000000000e+00,9.578600000000000447e-01,6.807000000000000000e+03
2.000000000000000000e+00,9.575099999999999723e-01,3.849000000000000000e+03
2.000000000000000000e+00,9.574000000000000288e-01,4.271000000000000000e+03
2.000000000000000000e+00,9.569900000000000073e-01,3.890000000000000000e+03
2.000000000000000000e+00,9.568999999999999728e-01,7.290000000000000000e+03
2.000000000000000000e+00,9.565099999999999714e-01,7.430000000000000000e+03
2.000000000000000000e+00,9.542599999999999971e-01,7.271000000000000000e+03
2.000000000000000000e+00,9.539199999999999902e-01,6.633000000000000000e+03
2.000000000000000000e+00,9.527099999999999458e-01,5.829000000000000000e+03
2.000000000000000000e+00,9.523899999999999588e-01,5.330000000000000000e+02
2.000000000000000000e+00,9.522599999999999953e-01,5.310000000000000000e+03
2.000000000000000000e+00,9.520199999999999774e-01,8.501000000000000000e+03
2.000000000000000000e+00,9.518400000000000194e-01,3.879000000000000000e+03
2.000000000000000000e+00,9.516900000000000359e-01,7.320000000000000000e+02
2.000000000000000000e+00,9.516499999999999959e-01,5.170000000000000000e+03
2.000000000000000000e+00,9.511500000000000510e-01,8.490000000000000000e+02
2.000000000000000000e+00,9.503899999999999570e-01,2.801000000000000000e+03
2.000000000000000000e+00,9.500899999999999901e-01,3.015000000000000000e+03
2.000000000000000000e+00,9.498999999999999666e-01,2.883000000000000000e+03
2.000000000000000000e+00,9.496299999999999741e-01,5.557000000000000000e+03
2.000000000000000000e+00,9.495299999999999851e-01,1.230000000000000000e+02
2.000000000000000000e+00,9.493599999999999817e-01,2.433000000000000000e+03
2.000000000000000000e+00,9.491500000000000492e-01,8.870000000000000000e+02
2.000000000000000000e+00,9.489699999999999802e-01,2.153000000000000000e+03
2.000000000000000000e+00,9.487799999999999567e-01,2.254000000000000000e+03
2.000000000000000000e+00,9.477999999999999758e-01,5.654000000000000000e+03
2.000000000000000000e+00,9.476499999999999924e-01,4.038000000000000000e+03
2.000000000000000000e+00,9.466700000000000115e-01,4.715000000000000000e+03
2.000000000000000000e+00,9.465500000000000025e-01,3.969000000000000000e+03
2.000000000000000000e+00,9.460899999999999865e-01,7.870000000000000000e+02
2.000000000000000000e+00,9.456900000000000306e-01,8.312000000000000000e+03
2.000000000000000000e+00,9.454599999999999671e-01,2.870000000000000000e+03
2.000000000000000000e+00,9.452300000000000146e-01,1.744000000000000000e+03
2.000000000000000000e+00,9.445200000000000262e-01,5.782000000000000000e+03
2.000000000000000000e+00,9.440699999999999648e-01,7.410000000000000000e+02
2.000000000000000000e+00,9.433000000000000274e-01,5.108000000000000000e+03
2.000000000000000000e+00,9.426799999999999624e-01,1.073000000000000000e+03
2.000000000000000000e+00,9.423300000000000010e-01,1.620000000000000000e+03
2.000000000000000000e+00,9.422599999999999865e-01,1.400000000000000000e+03
2.000000000000000000e+00,9.413799999999999946e-01,3.270000000000000000e+02
2.000000000000000000e+00,9.413399999999999546e-01,6.318000000000000000e+03
2.000000000000000000e+00,9.411000000000000476e-01,6.560000000000000000e+02
2.000000000000000000e+00,9.406400000000000317e-01,6.901000000000000000e+03
2.000000000000000000e+00,9.405799999999999716e-01,1.298000000000000000e+03
2.000000000000000000e+00,9.403899999999999482e-01,7.087000000000000000e+03
2.000000000000000000e+00,9.400800000000000267e-01,2.685000000000000000e+03
2.000000000000000000e+00,9.400199999999999667e-01,6.380000000000000000e+02
2.000000000000000000e+00,9.399399999999999977e-01,6.727000000000000000e+03
2.000000000000000000e+00,9.390500000000000513e-01,3.308000000000000000e+03
2.000000000000000000e+00,9.385900000000000354e-01,5.444000000000000000e+03
2.000000000000000000e+00,9.385700000000000154e-01,4.971000000000000000e+03
2.000000000000000000e+00,9.374000000000000110e-01,5.027000000000000000e+03
2.000000000000000000e+00,9.368699999999999806e-01,2.235000000000000000e+03
2.000000000000000000e+00,9.367400000000000171e-01,3.229000000000000000e+03
2.000000000000000000e+00,9.366400000000000281e-01,3.500000000000000000e+03
2.000000000000000000e+00,9.363099999999999756e-01,5.171000000000000000e+03
2.000000000000000000e+00,9.361800000000000122e-01,6.532000000000000000e+03
2.000000000000000000e+00,9.358899999999999997e-01,4.005000000000000000e+03
2.000000000000000000e+00,9.358499999999999597e-01,1.487000000000000000e+03
2.000000000000000000e+00,9.355299999999999727e-01,4.780000000000000000e+03
2.000000000000000000e+00,9.354000000000000092e-01,1.571000000000000000e+03
2.000000000000000000e+00,9.347199999999999953e-01,2.180000000000000000e+03
2.000000000000000000e+00,9.345200000000000173e-01,5.176000000000000000e+03
2.000000000000000000e+00,9.344200000000000284e-01,7.071000000000000000e+03
2.000000000000000000e+00,9.341599999999999904e-01,5.208000000000000000e+03
2.000000000000000000e+00,9.335599999999999454e-01,3.368000000000000000e+03
2.000000000000000000e+00,9.329499999999999460e-01,6.054000000000000000e+03
2.000000000000000000e+00,9.328499999999999570e-01,3.513000000000000000e+03
2.000000000000000000e+00,9.328400000000000025e-01,3.370000000000000000e+03
2.000000000000000000e+00,9.327900000000000080e-01,1.590000000000000000e+02
2.000000000000000000e+00,9.322399999999999576e-01,8.278000000000000000e+03
2.000000000000000000e+00,9.318100000000000271e-01,1.133000000000000000e+03
2.000000000000000000e+00,9.307199999999999918e-01,5.637000000000000000e+03
2.000000000000000000e+00,9.304099999999999593e-01,3.463000000000000000e+03
2.000000000000000000e+00,9.300899999999999723e-01,9.030000000000000000e+02
2.000000000000000000e+00,9.299699999999999633e-01,1.201000000000000000e+03
2.000000000000000000e+00,9.291800000000000059e-01,2.600000000000000000e+02
2.000000000000000000e+00,9.273200000000000331e-01,8.412000000000000000e+03
2.000000000000000000e+00,9.272399999999999531e-01,1.937000000000000000e+03
2.000000000000000000e+00,9.270599999999999952e-01,7.577000000000000000e+03
2.000000000000000000e+00,9.269300000000000317e-01,6.500000000000000000e+02
2.000000000000000000e+00,9.262500000000000178e-01,7.179000000000000000e+03
2.000000000000000000e+00,9.260399999999999743e-01,7.194000000000000000e+03
2.000000000000000000e+00,9.260099999999999998e-01,1.907000000000000000e+03
2.000000000000000000e+00,9.254799999999999693e-01,4.753000000000000000e+03
2.000000000000000000e+00,9.253700000000000259e-01,7.686000000000000000e+03
2.000000000000000000e+00,9.253000000000000114e-01,3.924000000000000000e+03
2.000000000000000000e+00,9.249500000000000499e-01,6.073000000000000000e+03
2.000000000000000000e+00,9.248499999999999499e-01,2.170000000000000000e+03
2.000000000000000000e+00,9.246999999999999664e-01,1.564000000000000000e+03
2.000000000000000000e+00,9.246100000000000430e-01,7.968000000000000000e+03
2.000000000000000000e+00,9.240800000000000125e-01,5.030000000000000000e+02
2.000000000000000000e+00,9.222099999999999742e-01,5.224000000000000000e+03
2.000000000000000000e+00,9.207400000000000029e-01,4.130000000000000000e+02
2.000000000000000000e+00,9.204900000000000304e-01,6.247000000000000000e+03
2.000000000000000000e+00,9.200199999999999489e-01,4.576000000000000000e+03
2.000000000000000000e+00,9.197100000000000275e-01,5.750000000000000000e+03
2.000000000000000000e+00,9.186999999999999611e-01,7.540000000000000000e+03
2.000000000000000000e+00,9.186999999999999611e-01,5.308000000000000000e+03
2.000000000000000000e+00,9.181000000000000272e-01,5.689000000000000000e+03
2.000000000000000000e+00,9.180800000000000072e-01,1.068000000000000000e+03
2.000000000000000000e+00,9.180599999999999872e-01,6.685000000000000000e+03
2.000000000000000000e+00,9.177699999999999747e-01,3.436000000000000000e+03
2.000000000000000000e+00,9.176800000000000512e-01,6.907000000000000000e+03
2.000000000000000000e+00,9.174099999999999477e-01,2.091000000000000000e+03
2.000000000000000000e+00,9.172700000000000298e-01,8.200000000000000000e+03
2.000000000000000000e+00,9.171000000000000263e-01,8.399000000000000000e+03
2.000000000000000000e+00,9.170700000000000518e-01,1.220000000000000000e+03
2.000000000000000000e+00,9.164900000000000269e-01,6.339000000000000000e+03
2.000000000000000000e+00,9.160700000000000509e-01,3.064000000000000000e+03
2.000000000000000000e+00,9.150399999999999645e-01,3.517000000000000000e+03
2.000000000000000000e+00,9.148199999999999665e-01,6.182000000000000000e+03
2.000000000000000000e+00,9.126300000000000523e-01,5.004000000000000000e+03
2.000000000000000000e+00,9.125600000000000378e-01,3.990000000000000000e+02
2.000000000000000000e+00,9.106999999999999540e-01,7.713000000000000000e+03
2.000000000000000000e+00,9.099599999999999911e-01,4.846000000000000000e+03
2.000000000000000000e+00,9.096400000000000041e-01,4.723000000000000000e+03
2.000000000000000000e+00,9.091099999999999737e-01,5.683000000000000000e+03
2.000000000000000000e+00,9.088100000000000067e-01,1.140000000000000000e+02
2.000000000000000000e+00,9.080000000000000293e-01,2.704000000000000000e+03
2.000000000000000000e+00,9.078600000000000003e-01,6.789000000000000000e+03
2.000000000000000000e+00,9.076899999999999968e-01,3.287000000000000000e+03
2.000000000000000000e+00,9.075699999999999878e-01,6.533000000000000000e+03
2.000000000000000000e+00,9.073400000000000354e-01,6.845000000000000000e+03
2.000000000000000000e+00,9.072000000000000064e-01,3.373000000000000000e+03
2.000000000000000000e+00,9.071299999999999919e-01,6.222000000000000000e+03
2.000000000000000000e+00,9.069899999999999629e-01,4.980000000000000000e+02
2.000000000000000000e+00,9.069199999999999484e-01,6.793000000000000000e+03
2.000000000000000000e+00,9.067100000000000160e-01,5.770000000000000000e+02
2.000000000000000000e+00,9.062500000000000000e-01,5.614000000000000000e+03
2.000000000000000000e+00,9.058599999999999985e-01,7.367000000000000000e+03
2.000000000000000000e+00,9.057100000000000151e-01,5.390000000000000000e+02
2.000000000000000000e+00,9.056199999999999806e-01,8.389000000000000000e+03
2.000000000000000000e+00,9.048899999999999721e-01,6.460000000000000000e+03
2.000000000000000000e+00,9.041500000000000092e-01,5.930000000000000000e+02
2.000000000000000000e+00,9.040099999999999802e-01,6.080000000000000000e+02
2.000000000000000000e+00,9.033900000000000263e-01,2.826000000000000000e+03
2.000000000000000000e+00,9.032099999999999573e-01,4.195000000000000000e+03
2.000000000000000000e+00,9.031900000000000484e-01,5.997000000000000000e+03
2.000000000000000000e+00,9.031700000000000284e-01,1.317000000000000000e+03
2.000000000000000000e+00,9.027399999999999869e-01,4.240000000000000000e+03
2.000000000000000000e+00,9.026999999999999469e-01,7.659000000000000000e+03
2.000000000000000000e+00,9.024999999999999689e-01,3.730000000000000000e+03
2.000000000000000000e+00,9.017699999999999605e-01,2.577000000000000000e+03
2.000000000000000000e+00,9.015600000000000280e-01,7.049000000000000000e+03
2.000000000000000000e+00,9.014600000000000390e-01,6.986000000000000000e+03
2.000000000000000000e+00,9.012099999999999556e-01,1.091000000000000000e+03
2.000000000000000000e+00,9.010599999999999721e-01,5.734000000000000000e+03
2.000000000000000000e+00,9.010000000000000231e-01,9.600000000000000000e+01
2.000000000000000000e+00,9.009300000000000086e-01,7.603000000000000000e+03
2.000000000000000000e+00,9.008399999999999741e-01,1.407000000000000000e+03
2.000000000000000000e+00,9.007699999999999596e-01,3.696000000000000000e+03
2.000000000000000000e+00,9.007199999999999651e-01,6.071000000000000000e+03
2.000000000000000000e+00,9.004799999999999471e-01,8.301000000000000000e+03
2.000000000000000000e+00,9.002299999999999747e-01,7.830000000000000000e+03
2.000000000000000000e+00,8.998300000000000187e-01,3.309000000000000000e+03
2.000000000000000000e+00,8.994600000000000373e-01,5.197000000000000000e+03
2.000000000000000000e+00,8.991700000000000248e-01,8.179000000000000000e+03
2.000000000000000000e+00,8.989399999999999613e-01,2.348000000000000000e+03
2.000000000000000000e+00,8.988099999999999978e-01,1.100000000000000000e+03
2.000000000000000000e+00,8.983799999999999564e-01,4.331000000000000000e+03
2.000000000000000000e+00,8.983200000000000074e-01,2.488000000000000000e+03
2.000000000000000000e+00,8.981500000000000039e-01,4.268000000000000000e+03
2.000000000000000000e+00,8.978300000000000169e-01,6.430000000000000000e+03
2.000000000000000000e+00,8.973100000000000520e-01,4.228000000000000000e+03
2.000000000000000000e+00,8.971500000000000030e-01,1.836000000000000000e+03
2.000000000000000000e+00,8.960799999999999876e-01,7.446000000000000000e+03
2.000000000000000000e+00,8.959099999999999842e-01,2.112000000000000000e+03
2.000000000000000000e+00,8.956499999999999462e-01,3.228000000000000000e+03
2.000000000000000000e+00,8.956399999999999917e-01,7.230000000000000000e+02
2.000000000000000000e+00,8.954299999999999482e-01,7.370000000000000000e+02
2.000000000000000000e+00,8.950299999999999923e-01,5.693000000000000000e+03
2.000000000000000000e+00,8.945100000000000273e-01,5.946000000000000000e+03
2.000000000000000000e+00,8.943699999999999983e-01,3.294000000000000000e+03
2.000000000000000000e+00,8.942499999999999893e-01,1.175000000000000000e+03
2.000000000000000000e+00,8.940500000000000114e-01,7.156000000000000000e+03
2.000000000000000000e+00,8.939700000000000424e-01,6.970000000000000000e+02
2.000000000000000000e+00,8.938000000000000389e-01,1.587000000000000000e+03
2.000000000000000000e+00,8.927599999999999980e-01,7.700000000000000000e+02
2.000000000000000000e+00,8.924400000000000110e-01,1.870000000000000000e+02
2.000000000000000000e+00,8.923200000000000021e-01,4.428000000000000000e+03
2.000000000000000000e+00,8.922999999999999821e-01,2.040000000000000000e+02
3.000000000000000000e+00,9.982199999999999962e-01,4.244000000000000000e+03
3.000000000000000000e+00,9.981900000000000217e-01,1.706000000000000000e+03
3.000000000000000000e+00,9.979599999999999582e-01,7.983000000000000000e+03
3.000000000000000000e+00,9.977899999999999547e-01,6.103000000000000000e+03
3.000000000000000000e+00,9.976000000000000423e-01,7.374000000000000000e+03
3.000000000000000000e+00,9.975600000000000023e-01,5.063000000000000000e+03
3.000000000000000000e+00,9.974199999999999733e-01,3.050000000000000000e+03
3.000000000000000000e+00,9.974100000000000188e-01,7.180000000000000000e+03
3.000000000000000000e+00,9.972199999999999953e-01,4.740000000000000000e+02
3.000000000000000000e+00,9.970200000000000173e-01,8.377000000000000000e+03
3.000000000000000000e+00,9.967200000000000504e-01,5.503000000000000000e+03
3.000000000000000000e+00,9.966199999999999504e-01,3.408000000000000000e+03
3.000000000000000000e+00,9.964100000000000179e-01,4.913000000000000000e+03
3.000000000000000000e+00,9.963600000000000234e-01,5.056000000000000000e+03
3.000000000000000000e+00,9.961999999999999744e-01,2.168000000000000000e+03
3.000000000000000000e+00,9.957899999999999530e-01,3.565000000000000000e+03
3.000000000000000000e+00,9.957300000000000040e-01,1.502000000000000000e+03
3.000000000000000000e+00,9.957200000000000495e-01,9.840000000000000000e+02
3.000000000000000000e+00,9.953199999999999825e-01,7.616000000000000000e+03
3.000000000000000000e+00,9.952199999999999935e-01,8.046000000000000000e+03
3.000000000000000000e+00,9.950999999999999845e-01,1.585000000000000000e+03
3.000000000000000000e+00,9.947099999999999831e-01,1.703000000000000000e+03
3.000000000000000000e+00,9.945899999999999741e-01,1.390000000000000000e+02
3.000000000000000000e+00,9.945399999999999796e-01,4.812000000000000000e+03
3.000000000000000000e+00,9.945399999999999796e-01,1.275000000000000000e+03
3.000000000000000000e+00,9.939999999999999947e-01,2.874000000000000000e+03
3.000000000000000000e+00,9.938900000000000512e-01,4.325000000000000000e+03
3.000000000000000000e+00,9.938799999999999857e-01,2.419000000000000000e+03
3.000000000000000000e+00,9.937700000000000422e-01,3.549000000000000000e+03
3.000000000000000000e+00,9.937399999999999567e-01,6.519000000000000000e+03
3.000000000000000000e+00,9.934500000000000552e-01,3.829000000000000000e+03
3.000000000000000000e+00,9.933800000000000407e-01,5.365000000000000000e+03
3.000000000000000000e+00,9.933699999999999752e-01,4.873000000000000000e+03
3.000000000000000000e+00,9.933300000000000463e-01,6.897000000000000000e+03
3.000000000000000000e+00,9.933199999999999807e-01,2.961000000000000000e+03
3.000000000000000000e+00,9.932199999999999918e-01,5.571000000000000000e+03
3.000000000000000000e+00,9.931699999999999973e-01,8.402000000000000000e+03
3.000000000000000000e+00,9.928299999999999903e-01,3.541000000000000000e+03
3.000000000000000000e+00,9.927000000000000268e-01,2.217000000000000000e+03
3.000000000000000000e+00,9.926899999999999613e-01,7.154000000000000000e+03
3.000000000000000000e+00,9.925300000000000233e-01,1.567000000000000000e+03
3.000000000000000000e+00,9.924500000000000544e-01,7.000000000000000000e+02
3.000000000000000000e+00,9.921600000000000419e-01,7.568000000000000000e+03
3.000000000000000000e+00,9.921200000000000019e-01,4.522000000000000000e+03
3.000000000000000000e+00,9.919299999999999784e-01,1.160000000000000000e+03
3.000000000000000000e+00,9.918400000000000549e-01,3.489000000000000000e+03
3.000000000000000000e+00,9.916399999999999659e-01,4.853000000000000000e+03
3.000000000000000000e+00,9.915399999999999769e-01,7.322000000000000000e+03
3.000000000000000000e+00,9.913399999999999990e-01,1.253000000000000000e+03
3.000000000000000000e+00,9.910700000000000065e-01,8.021000000000000000e+03
3.000000000000000000e+00,9.910200000000000120e-01,1.750000000000000000e+03
3.000000000000000000e+00,9.909999999999999920e-01,6.180000000000000000e+03
3.000000000000000000e+00,9.908500000000000085e-01,2.833000000000000000e+03
3.000000000000000000e+00,9.904699999999999616e-01,4.756000000000000000e+03
3.000000000000000000e+00,9.903399999999999981e-01,3.352000000000000000e+03
3.000000000000000000e+00,9.902800000000000491e-01,1.006000000000000000e+03
3.000000000000000000e+00,9.901600000000000401e-01,2.717000000000000000e+03
3.000000000000000000e+00,9.900900000000000256e-01,5.850000000000000000e+02
3.000000000000000000e+00,9.900799999999999601e-01,6.438000000000000000e+03
3.000000000000000000e+00,9.896099999999999897e-01,4.503000000000000000e+03
3.000000000000000000e+00,9.894300000000000317e-01,7.727000000000000000e+03
3.000000000000000000e+00,9.893399999999999972e-01,2.479000000000000000e+03
3.000000000000000000e+00,9.890499999999999847e-01,8.281000000000000000e+03
3.000000000000000000e+00,9.888400000000000523e-01,2.181000000000000000e+03
3.000000000000000000e+00,9.884300000000000308e-01,4.513000000000000000e+03
3.000000000000000000e+00,9.883300000000000418e-01,2.706000000000000000e+03
3.000000000000000000e+00,9.882900000000000018e-01,2.364000000000000000e+03
3.000000000000000000e+00,9.882699999999999818e-01,1.727000000000000000e+03
3.000000000000000000e+00,9.882100000000000328e-01,7.592000000000000000e+03
3.000000000000000000e+00,9.879000000000000004e-01,1.116000000000000000e+03
3.000000000000000000e+00,9.879000000000000004e-01,4.644000000000000000e+03
3.000000000000000000e+00,9.877099999999999769e-01,8.493000000000000000e+03
3.000000000000000000e+00,9.872900000000000009e-01,2.010000000000000000e+02
3.000000000000000000e+00,9.871699999999999919e-01,3.738000000000000000e+03
3.000000000000000000e+00,9.871400000000000174e-01,4.676000000000000000e+03
3.000000000000000000e+00,9.864199999999999635e-01,6.781000000000000000e+03
3.000000000000000000e+00,9.862300000000000511e-01,4.282000000000000000e+03
3.000000000000000000e+00,9.859599999999999476e-01,6.190000000000000000e+02
3.000000000000000000e+00,9.857000000000000206e-01,3.946000000000000000e+03
3.000000000000000000e+00,9.855599999999999916e-01,7.320000000000000000e+03
3.000000000000000000e+00,9.851799999999999446e-01,1.966000000000000000e+03
3.000000000000000000e+00,9.845899999999999652e-01,4.137000000000000000e+03
3.000000000000000000e+00,9.845099999999999962e-01,2.607000000000000000e+03
3.000000000000000000e+00,9.842600000000000238e-01,6.830000000000000000e+03
3.000000000000000000e+00,9.840600000000000458e-01,2.785000000000000000e+03
3.000000000000000000e+00,9.838400000000000478e-01,1.429000000000000000e+03
3.000000000000000000e+00,9.837700000000000333e-01,3.596000000000000000e+03
3.000000000000000000e+00,9.837099999999999733e-01,4.916000000000000000e+03
3.000000000000000000e+00,9.836500000000000243e-01,2.955000000000000000e+03
3.000000000000000000e+00,9.836399999999999588e-01,3.239000000000000000e+03
3.000000000000000000e+00,9.835300000000000153e-01,4.450000000000000000e+02
3.000000000000000000e+00,9.833899999999999864e-01,4.918000000000000000e+03
3.000000000000000000e+00,9.833300000000000374e-01,7.331000000000000000e+03
3.000000000000000000e+00,9.831600000000000339e-01,7.183000000000000000e+03
3.000000000000000000e+00,9.830499999999999794e-01,4.819000000000000000e+03
3.000000000000000000e+00,9.828700000000000214e-01,8.456000000000000000e+03
3.000000000000000000e+00,9.825300000000000145e-01,5.408000000000000000e+03
3.000000000000000000e+00,9.823100000000000165e-01,2.252000000000000000e+03
3.000000000000000000e+00,9.819099999999999495e-01,7.610000000000000000e+02
3.000000000000000000e+00,9.817500000000000115e-01,4.948000000000000000e+03
3.000000000000000000e+00,9.815000000000000391e-01,7.724000000000000000e+03
3.000000000000000000e+00,9.812899999999999956e-01,7.786000000000000000e+03
3.000000000000000000e+00,9.810299999999999576e-01,4.555000000000000000e+03
3.000000000000000000e+00,9.810100000000000486e-01,6.841000000000000000e+03
3.000000000000000000e+00,9.807900000000000507e-01,2.514000000000000000e+03
3.000000000000000000e+00,9.807700000000000307e-01,2.821000000000000000e+03
3.000000000000000000e+00,9.796399999999999553e-01,2.730000000000000000e+03
3.000000000000000000e+00,9.783899999999999819e-01,1.640000000000000000e+02
3.000000000000000000e+00,9.780100000000000460e-01,3.269000000000000000e+03
3.000000000000000000e+00,9.773600000000000065e-01,3.739000000000000000e+03
3.000000000000000000e+00,9.768299999999999761e-01,4.329000000000000000e+03
3.000000000000000000e+00,9.761699999999999822e-01,5.910000000000000000e+02
3.000000000000000000e+00,9.760499999999999732e-01,8.213000000000000000e+03
3.000000000000000000e+00,9.759499999999999842e-01,8.130000000000000000e+02
3.000000000000000000e+00,9.757900000000000462e-01,3.183000000000000000e+03
3.000000000000000000e+00,9.751800000000000468e-01,3.118000000000000000e+03
3.000000000000000000e+00,9.751400000000000068e-01,3.700000000000000000e+02
3.000000000000000000e+00,9.746200000000000419e-01,7.136000000000000000e+03
3.000000000000000000e+00,9.745399999999999618e-01,5.355000000000000000e+03
3.000000000000000000e+00,9.744699999999999473e-01,7.027000000000000000e+03
3.000000000000000000e+00,9.744399999999999729e-01,3.848000000000000000e+03
3.000000000000000000e+00,9.734899999999999665e-01,6.982000000000000000e+03
3.000000000000000000e+00,9.728799999999999670e-01,4.251000000000000000e+03
3.000000000000000000e+00,9.725500000000000256e-01,2.411000000000000000e+03
3.000000000000000000e+00,9.717799999999999772e-01,8.464000000000000000e+03
3.000000000000000000e+00,9.715399999999999592e-01,1.578000000000000000e+03
3.000000000000000000e+00,9.711699999999999777e-01,6.512000000000000000e+03
3.000000000000000000e+00,9.711400000000000032e-01,4.303000000000000000e+03
3.000000000000000000e+00,9.703100000000000058e-01,4.890000000000000000e+03
3.000000000000000000e+00,9.702699999999999658e-01,4.170000000000000000e+03
3.000000000000000000e+00,9.695300000000000029e-01,7.818000000000000000e+03
3.000000000000000000e+00,9.692499999999999449e-01,7.631000000000000000e+03
3.000000000000000000e+00,9.679100000000000481e-01,7.859000000000000000e+03
3.000000000000000000e+00,9.672600000000000087e-01,6.769000000000000000e+03
3.000000000000000000e+00,9.670900000000000052e-01,1.299000000000000000e+03
3.000000000000000000e+00,9.663699999999999513e-01,4.424000000000000000e+03
3.000000000000000000e+00,9.660900000000000043e-01,1.246000000000000000e+03
3.000000000000000000e+00,9.658400000000000318e-01,7.198000000000000000e+03
3.000000000000000000e+00,9.649799999999999489e-01,7.794000000000000000e+03
3.000000000000000000e+00,9.646299999999999875e-01,3.580000000000000000e+03
3.000000000000000000e+00,9.644099999999999895e-01,6.935000000000000000e+03
3.000000000000000000e+00,9.630999999999999561e-01,2.772000000000000000e+03
3.000000000000000000e+00,9.623800000000000132e-01,3.215000000000000000e+03
3.000000000000000000e+00,9.619600000000000373e-01,1.707000000000000000e+03
3.000000000000000000e+00,9.612000000000000544e-01,4.735000000000000000e+03
3.000000000000000000e+00,9.610899999999999999e-01,6.900000000000000000e+02
3.000000000000000000e+00,9.610300000000000509e-01,4.257000000000000000e+03
3.000000000000000000e+00,9.609100000000000419e-01,6.738000000000000000e+03
3.000000000000000000e+00,9.606700000000000239e-01,5.600000000000000000e+01
3.000000000000000000e+00,9.600899999999999990e-01,8.468000000000000000e+03
3.000000000000000000e+00,9.587099999999999511e-01,2.069000000000000000e+03
3.000000000000000000e+00,9.580600000000000227e-01,4.216000000000000000e+03
3.000000000000000000e+00,9.566000000000000059e-01,7.740000000000000000e+02
3.000000000000000000e+00,9.563599999999999879e-01,2.829000000000000000e+03
3.000000000000000000e+00,9.561600000000000099e-01,3.199000000000000000e+03
3.000000000000000000e+00,9.561500000000000554e-01,5.189000000000000000e+03
3.000000000000000000e+00,9.548299999999999566e-01,7.869000000000000000e+03
3.000000000000000000e+00,9.545599999999999641e-01,5.076000000000000000e+03
3.000000000000000000e+00,9.536000000000000032e-01,2.933000000000000000e+03
3.000000000000000000e+00,9.536000000000000032e-01,1.070000000000000000e+03
3.000000000000000000e+00,9.522000000000000464e-01,1.169000000000000000e+03
3.000000000000000000e+00,9.516900000000000359e-01,6.157000000000000000e+03
3.000000000000000000e+00,9.502699999999999481e-01,3.443000000000000000e+03
3.000000000000000000e+00,9.499300000000000521e-01,5.089000000000000000e+03
3.000000000000000000e+00,9.497299999999999631e-01,8.378000000000000000e+03
3.000000000000000000e+00,9.483399999999999608e-01,4.452000000000000000e+03
3.000000000000000000e+00,9.478600000000000358e-01,1.250000000000000000e+02
3.000000000000000000e+00,9.468100000000000405e-01,2.372000000000000000e+03
3.000000000000000000e+00,9.467900000000000205e-01,8.204000000000000000e+03
3.000000000000000000e+00,9.465299999999999825e-01,5.018000000000000000e+03
3.000000000000000000e+00,9.463899999999999535e-01,4.473000000000000000e+03
3.000000000000000000e+00,9.439899999999999958e-01,1.755000000000000000e+03
3.000000000000000000e+00,9.432500000000000329e-01,4.966000000000000000e+03
3.000000000000000000e+00,9.431800000000000184e-01,2.055000000000000000e+03
3.000000000000000000e+00,9.427100000000000479e-01,7.893000000000000000e+03
3.000000000000000000e+00,9.418499999999999650e-01,7.736000000000000000e+03
3.000000000000000000e+00,9.413000000000000256e-01,8.160000000000000000e+03
3.000000000000000000e+00,9.409999999999999476e-01,6.573000000000000000e+03
3.000000000000000000e+00,9.398499999999999632e-01,5.507000000000000000e+03
3.000000000000000000e+00,9.395299999999999763e-01,2.614000000000000000e+03
3.000000000000000000e+00,9.389199999999999768e-01,2.133000000000000000e+03
3.000000000000000000e+00,9.381399999999999739e-01,4.231000000000000000e+03
3.000000000000000000e+00,9.375200000000000200e-01,4.899000000000000000e+03
3.000000000000000000e+00,9.367600000000000371e-01,6.290000000000000000e+02
3.000000000000000000e+00,9.367499999999999716e-01,7.138000000000000000e+03
3.000000000000000000e+00,9.339899999999999869e-01,1.763000000000000000e+03
3.000000000000000000e+00,9.338600000000000234e-01,2.740000000000000000e+03
3.000000000000000000e+00,9.311599999999999877e-01,8.409000000000000000e+03
3.000000000000000000e+00,9.296200000000000019e-01,2.196000000000000000e+03
3.000000000000000000e+00,9.278199999999999781e-01,1.427000000000000000e+03
3.000000000000000000e+00,9.248499999999999499e-01,2.113000000000000000e+03
3.000000000000000000e+00,9.191500000000000226e-01,6.534000000000000000e+03
3.000000000000000000e+00,9.187899999999999956e-01,4.946000000000000000e+03
3.000000000000000000e+00,9.182500000000000107e-01,8.035000000000000000e+03
3.000000000000000000e+00,9.146699999999999831e-01,6.501000000000000000e+03
3.000000000000000000e+00,9.141799999999999926e-01,5.240000000000000000e+02
3.000000000000000000e+00,9.106199999999999850e-01,7.050000000000000000e+02
3.000000000000000000e+00,9.091299999999999937e-01,7.356000000000000000e+03
3.000000000000000000e+00,9.090200000000000502e-01,4.701000000000000000e+03
3.000000000000000000e+00,9.079399999999999693e-01,2.750000000000000000e+03
3.000000000000000000e+00,9.073799999999999644e-01,1.048000000000000000e+03
3.000000000000000000e+00,9.064699999999999980e-01,2.200000000000000000e+01
3.000000000000000000e+00,9.009200000000000541e-01,4.685000000000000000e+03
3.000000000000000000e+00,8.946199999999999708e-01,5.766000000000000000e+03
3.000000000000000000e+00,8.926899999999999835e-01,1.060000000000000000e+02
3.000000000000000000e+00,8.924600000000000311e-01,1.529000000000000000e+03
3.000000000000000000e+00,8.912499999999999867e-01,8.258000000000000000e+03
3.000000000000000000e+00,8.862900000000000222e-01,7.728000000000000000e+03
3.000000000000000000e+00,8.854300000000000503e-01,1.772000000000000000e+03
3.000000000000000000e+00,8.762999999999999678e-01,5.370000000000000000e+02
3.000000000000000000e+00,8.713100000000000289e-01,6.588000000000000000e+03
3.000000000000000000e+00,8.686099999999999932e-01,1.270000000000000000e+03
3.000000000000000000e+00,8.676399999999999668e-01,1.833000000000000000e+03
3.000000000000000000e+00,8.571600000000000330e-01,3.039000000000000000e+03
3.000000000000000000e+00,8.563899999999999846e-01,4.086000000000000000e+03
3.000000000000000000e+00,8.525500000000000300e-01,7.070000000000000000e+03
3.000000000000000000e+00,8.517200000000000326e-01,2.032000000000000000e+03
3.000000000000000000e+00,8.482899999999999885e-01,3.400000000000000000e+01
3.000000000000000000e+00,8.423699999999999521e-01,6.435000000000000000e+03
3.000000000000000000e+00,8.416299999999999892e-01,1.063000000000000000e+03
3.000000000000000000e+00,8.383099999999999996e-01,3.149000000000000000e+03
3.000000000000000000e+00,8.308900000000000174e-01,3.070000000000000000e+02
3.000000000000000000e+00,8.274899999999999478e-01,7.489000000000000000e+03
3.000000000000000000e+00,8.196400000000000352e-01,6.048000000000000000e+03
3.000000000000000000e+00,8.135299999999999754e-01,8.372000000000000000e+03
3.000000000000000000e+00,8.026200000000000001e-01,5.233000000000000000e+03
3.000000000000000000e+00,7.979800000000000226e-01,5.960000000000000000e+03
3.000000000000000000e+00,7.946199999999999930e-01,5.134000000000000000e+03
3.000000000000000000e+00,7.924499999999999877e-01,4.805000000000000000e+03
3.000000000000000000e+00,7.917999999999999483e-01,1.938000000000000000e+03
3.000000000000000000e+00,7.675300000000000455e-01,1.805000000000000000e+03
3.000000000000000000e+00,7.646199999999999664e-01,2.702000000000000000e+03
3.000000000000000000e+00,7.629899999999999460e-01,5.341000000000000000e+03
3.000000000000000000e+00,7.610500000000000043e-01,6.021000000000000000e+03
3.000000000000000000e+00,7.500900000000000345e-01,7.471000000000000000e+03
3.000000000000000000e+00,7.363600000000000145e-01,7.382000000000000000e+03
3.000000000000000000e+00,7.352499999999999591e-01,5.592000000000000000e+03
3.000000000000000000e+00,7.268799999999999706e-01,7.139000000000000000e+03
3.000000000000000000e+00,7.266299999999999981e-01,8.124000000000000000e+03
3.000000000000000000e+00,7.238599999999999479e-01,8.043000000000000000e+03
3.000000000000000000e+00,7.135799999999999921e-01,3.363000000000000000e+03
3.000000000000000000e+00,7.128999999999999782e-01,6.241000000000000000e+03
3.000000000000000000e+00,7.112500000000000488e-01,4.941000000000000000e+03
3.000000000000000000e+00,7.091699999999999671e-01,6.622000000000000000e+03
3.000000000000000000e+00,7.044300000000000006e-01,4.186000000000000000e+03
