1.000000000000000000e+00,7.639500000000000179e-01,3.000000000000000000e+01,1.000000000000000000e+00
1.000000000000000000e+00,5.816200000000000259e-01,3.000000000000000000e+01,2.000000000000000000e+00
1.000000000000000000e+00,6.529800000000000049e-01,6.000000000000000000e+01,3.000000000000000000e+00
1.000000000000000000e+00,9.393599999999999728e-01,3.000000000000000000e+01,6.000000000000000000e+00
1.000000000000000000e+00,7.151499999999999524e-01,3.000000000000000000e+01,7.000000000000000000e+00
1.000000000000000000e+00,9.861100000000000421e-01,6.000000000000000000e+01,1.000000000000000000e+01
1.000000000000000000e+00,7.933599999999999541e-01,3.000000000000000000e+01,1.200000000000000000e+01
1.000000000000000000e+00,3.786300000000000221e-01,1.857000000000000028e+01,1.400000000000000000e+01
1.000000000000000000e+00,5.711199999999999610e-01,3.000000000000000000e+01,1.600000000000000000e+01
1.000000000000000000e+00,9.254000000000000004e-01,3.000000000000000000e+01,1.800000000000000000e+01
1.000000000000000000e+00,8.114400000000000501e-01,3.839999999999999858e+01,1.900000000000000000e+01
1.000000000000000000e+00,9.495400000000000507e-01,3.000000000000000000e+01,2.100000000000000000e+01
1.000000000000000000e+00,8.735399999999999832e-01,3.000000000000000000e+01,2.500000000000000000e+01
1.000000000000000000e+00,9.609499999999999709e-01,3.000000000000000000e+01,2.600000000000000000e+01
1.000000000000000000e+00,6.669000000000000483e-01,6.000000000000000000e+01,2.800000000000000000e+01
1.000000000000000000e+00,8.126499999999999835e-01,2.898000000000000043e+01,3.200000000000000000e+01
1.000000000000000000e+00,9.526299999999999768e-01,3.000000000000000000e+01,3.300000000000000000e+01
1.000000000000000000e+00,8.422600000000000087e-01,3.000000000000000000e+01,3.500000000000000000e+01
1.000000000000000000e+00,7.640200000000000324e-01,3.000000000000000000e+01,3.600000000000000000e+01
1.000000000000000000e+00,9.467299999999999605e-01,6.000000000000000000e+01,3.700000000000000000e+01
1.000000000000000000e+00,8.946800000000000308e-01,3.000000000000000000e+01,4.000000000000000000e+01
1.000000000000000000e+00,5.121700000000000141e-01,3.000000000000000000e+01,4.400000000000000000e+01
1.000000000000000000e+00,6.241999999999999771e-01,3.000000000000000000e+01,4.500000000000000000e+01
1.000000000000000000e+00,6.792899999999999494e-01,3.000000000000000000e+01,4.600000000000000000e+01
1.000000000000000000e+00,9.281800000000000050e-01,3.000000000000000000e+01,4.800000000000000000e+01
1.000000000000000000e+00,9.492699999999999472e-01,3.000000000000000000e+01,4.900000000000000000e+01
1.000000000000000000e+00,6.887100000000000444e-01,3.000000000000000000e+01,5.000000000000000000e+01
1.000000000000000000e+00,9.729200000000000070e-01,5.932999999999999829e+01,5.100000000000000000e+01
1.000000000000000000e+00,6.377199999999999536e-01,2.180999999999999872e+01,5.200000000000000000e+01
1.000000000000000000e+00,4.448599999999999777e-01,3.000000000000000000e+01,5.300000000000000000e+01
1.000000000000000000e+00,6.920600000000000085e-01,2.326999999999999957e+01,5.700000000000000000e+01
1.000000000000000000e+00,8.959399999999999586e-01,6.000000000000000000e+01,5.900000000000000000e+01
1.000000000000000000e+00,9.326799999999999535e-01,3.000000000000000000e+01,6.200000000000000000e+01
1.000000000000000000e+00,9.725099999999999856e-01,3.000000000000000000e+01,6.400000000000000000e+01
1.000000000000000000e+00,8.120100000000000096e-01,6.000000000000000000e+01,6.800000000000000000e+01
1.000000000000000000e+00,4.665300000000000002e-01,3.000000000000000000e+01,7.300000000000000000e+01
1.000000000000000000e+00,9.661300000000000443e-01,3.000000000000000000e+01,7.900000000000000000e+01
1.000000000000000000e+00,9.012799999999999701e-01,3.000000000000000000e+01,8.000000000000000000e+01
1.000000000000000000e+00,9.445999999999999952e-01,6.000000000000000000e+01,8.100000000000000000e+01
1.000000000000000000e+00,7.240199999999999969e-01,3.000000000000000000e+01,8.400000000000000000e+01
1.000000000000000000e+00,7.552499999999999769e-01,3.000000000000000000e+01,8.600000000000000000e+01
1.000000000000000000e+00,7.510099999999999554e-01,3.000000000000000000e+01,8.900000000000000000e+01
1.000000000000000000e+00,6.733099999999999641e-01,3.000000000000000000e+01,9.100000000000000000e+01
1.000000000000000000e+00,4.764599999999999946e-01,3.000000000000000000e+01,9.400000000000000000e+01
1.000000000000000000e+00,9.237999999999999545e-01,3.000000000000000000e+01,9.500000000000000000e+01
1.000000000000000000e+00,6.039299999999999669e-01,3.000000000000000000e+01,9.700000000000000000e+01
1.000000000000000000e+00,8.602999999999999536e-01,3.000000000000000000e+01,9.800000000000000000e+01
1.000000000000000000e+00,9.247199999999999864e-01,3.000000000000000000e+01,9.900000000000000000e+01
1.000000000000000000e+00,8.697500000000000231e-01,3.000000000000000000e+01,1.040000000000000000e+02
1.000000000000000000e+00,9.786799999999999944e-01,6.057000000000000028e+01,1.050000000000000000e+02
1.000000000000000000e+00,6.423499999999999766e-01,3.000000000000000000e+01,1.090000000000000000e+02
1.000000000000000000e+00,9.501699999999999591e-01,3.000000000000000000e+01,1.130000000000000000e+02
1.000000000000000000e+00,9.312399999999999567e-01,3.000000000000000000e+01,1.160000000000000000e+02
1.000000000000000000e+00,9.015699999999999825e-01,3.000000000000000000e+01,1.170000000000000000e+02
1.000000000000000000e+00,8.644800000000000262e-01,3.000000000000000000e+01,1.180000000000000000e+02
1.000000000000000000e+00,9.715899999999999537e-01,3.000000000000000000e+01,1.220000000000000000e+02
1.000000000000000000e+00,6.972399999999999709e-01,3.000000000000000000e+01,1.240000000000000000e+02
1.000000000000000000e+00,8.688299999999999912e-01,3.000000000000000000e+01,1.270000000000000000e+02
1.000000000000000000e+00,7.497800000000000020e-01,3.000000000000000000e+01,1.290000000000000000e+02
1.000000000000000000e+00,9.829200000000000159e-01,3.000000000000000000e+01,1.300000000000000000e+02
1.000000000000000000e+00,8.143700000000000383e-01,3.000000000000000000e+01,1.340000000000000000e+02
1.000000000000000000e+00,9.430500000000000549e-01,6.000000000000000000e+01,1.350000000000000000e+02
1.000000000000000000e+00,9.054600000000000426e-01,3.000000000000000000e+01,1.400000000000000000e+02
1.000000000000000000e+00,4.488199999999999967e-01,3.000000000000000000e+01,1.420000000000000000e+02
1.000000000000000000e+00,8.296200000000000241e-01,6.000000000000000000e+01,1.430000000000000000e+02
1.000000000000000000e+00,8.086100000000000509e-01,3.000000000000000000e+01,1.440000000000000000e+02
1.000000000000000000e+00,9.564599999999999769e-01,3.000000000000000000e+01,1.460000000000000000e+02
1.000000000000000000e+00,9.266199999999999992e-01,3.000000000000000000e+01,1.480000000000000000e+02
1.000000000000000000e+00,8.612400000000000055e-01,3.000000000000000000e+01,1.500000000000000000e+02
1.000000000000000000e+00,9.718099999999999516e-01,3.000000000000000000e+01,1.510000000000000000e+02
1.000000000000000000e+00,9.426999999999999824e-01,3.000000000000000000e+01,1.520000000000000000e+02
1.000000000000000000e+00,7.890599999999999836e-01,3.000000000000000000e+01,1.530000000000000000e+02
1.000000000000000000e+00,7.742400000000000393e-01,3.000000000000000000e+01,1.540000000000000000e+02
1.000000000000000000e+00,6.237399999999999611e-01,3.000000000000000000e+01,1.600000000000000000e+02
1.000000000000000000e+00,7.404600000000000071e-01,3.000000000000000000e+01,1.630000000000000000e+02
1.000000000000000000e+00,8.243399999999999617e-01,3.000000000000000000e+01,1.660000000000000000e+02
1.000000000000000000e+00,8.717300000000000049e-01,3.000000000000000000e+01,1.680000000000000000e+02
1.000000000000000000e+00,7.445899999999999741e-01,3.000000000000000000e+01,1.690000000000000000e+02
1.000000000000000000e+00,9.044499999999999762e-01,3.000000000000000000e+01,1.710000000000000000e+02
1.000000000000000000e+00,5.599399999999999933e-01,3.000000000000000000e+01,1.770000000000000000e+02
1.000000000000000000e+00,9.768400000000000416e-01,3.000000000000000000e+01,1.790000000000000000e+02
1.000000000000000000e+00,6.799399999999999888e-01,6.000000000000000000e+01,1.820000000000000000e+02
1.000000000000000000e+00,7.153899999999999704e-01,3.000000000000000000e+01,1.830000000000000000e+02
1.000000000000000000e+00,9.572399999999999798e-01,3.000000000000000000e+01,1.840000000000000000e+02
1.000000000000000000e+00,7.370799999999999574e-01,3.000000000000000000e+01,1.850000000000000000e+02
1.000000000000000000e+00,9.374000000000000110e-01,3.000000000000000000e+01,1.880000000000000000e+02
1.000000000000000000e+00,9.154099999999999460e-01,3.000000000000000000e+01,1.930000000000000000e+02
1.000000000000000000e+00,9.227300000000000502e-01,3.000000000000000000e+01,1.940000000000000000e+02
1.000000000000000000e+00,5.897999999999999909e-01,3.000000000000000000e+01,1.970000000000000000e+02
1.000000000000000000e+00,9.244499999999999940e-01,3.000000000000000000e+01,1.990000000000000000e+02
1.000000000000000000e+00,8.749700000000000255e-01,3.000000000000000000e+01,2.000000000000000000e+02
1.000000000000000000e+00,9.535500000000000087e-01,6.000000000000000000e+01,2.020000000000000000e+02
1.000000000000000000e+00,9.411399999999999766e-01,3.000000000000000000e+01,2.060000000000000000e+02
1.000000000000000000e+00,7.781700000000000284e-01,3.000000000000000000e+01,2.070000000000000000e+02
1.000000000000000000e+00,9.292599999999999749e-01,3.000000000000000000e+01,2.100000000000000000e+02
1.000000000000000000e+00,5.086899999999999755e-01,3.000000000000000000e+01,2.190000000000000000e+02
1.000000000000000000e+00,9.893899999999999917e-01,3.000000000000000000e+01,2.260000000000000000e+02
1.000000000000000000e+00,9.691699999999999759e-01,3.000000000000000000e+01,2.280000000000000000e+02
1.000000000000000000e+00,7.930199999999999472e-01,3.000000000000000000e+01,2.330000000000000000e+02
1.000000000000000000e+00,6.864900000000000446e-01,1.357000000000000028e+01,2.360000000000000000e+02
1.000000000000000000e+00,7.156500000000000083e-01,3.000000000000000000e+01,2.380000000000000000e+02
1.000000000000000000e+00,8.600700000000000012e-01,6.000000000000000000e+01,2.410000000000000000e+02
1.000000000000000000e+00,8.950900000000000523e-01,3.000000000000000000e+01,2.420000000000000000e+02
1.000000000000000000e+00,5.968900000000000317e-01,3.000000000000000000e+01,2.440000000000000000e+02
1.000000000000000000e+00,7.228900000000000325e-01,4.370000000000000284e+01,2.450000000000000000e+02
1.000000000000000000e+00,9.368400000000000061e-01,6.000000000000000000e+01,2.500000000000000000e+02
1.000000000000000000e+00,8.700200000000000156e-01,3.000000000000000000e+01,2.560000000000000000e+02
1.000000000000000000e+00,5.793599999999999861e-01,1.762999999999999901e+01,2.580000000000000000e+02
1.000000000000000000e+00,9.610300000000000509e-01,5.996999999999999886e+01,2.610000000000000000e+02
1.000000000000000000e+00,8.814899999999999958e-01,3.000000000000000000e+01,2.620000000000000000e+02
1.000000000000000000e+00,9.311700000000000532e-01,3.000000000000000000e+01,2.630000000000000000e+02
1.000000000000000000e+00,7.215399999999999592e-01,3.000000000000000000e+01,2.650000000000000000e+02
1.000000000000000000e+00,8.449900000000000189e-01,3.000000000000000000e+01,2.660000000000000000e+02
1.000000000000000000e+00,6.937900000000000178e-01,3.000000000000000000e+01,2.690000000000000000e+02
1.000000000000000000e+00,9.853300000000000392e-01,3.000000000000000000e+01,2.720000000000000000e+02
1.000000000000000000e+00,9.674399999999999666e-01,3.000000000000000000e+01,2.730000000000000000e+02
1.000000000000000000e+00,9.184900000000000286e-01,3.000000000000000000e+01,2.740000000000000000e+02
1.000000000000000000e+00,8.330999999999999517e-01,6.000000000000000000e+01,2.750000000000000000e+02
1.000000000000000000e+00,9.725700000000000456e-01,3.000000000000000000e+01,2.770000000000000000e+02
1.000000000000000000e+00,3.861999999999999877e-01,3.000000000000000000e+01,2.790000000000000000e+02
1.000000000000000000e+00,9.303299999999999903e-01,3.000000000000000000e+01,2.800000000000000000e+02
1.000000000000000000e+00,5.543599999999999639e-01,3.000000000000000000e+01,2.810000000000000000e+02
1.000000000000000000e+00,5.731899999999999773e-01,3.000000000000000000e+01,2.830000000000000000e+02
1.000000000000000000e+00,9.045600000000000307e-01,6.000000000000000000e+01,2.840000000000000000e+02
1.000000000000000000e+00,6.812700000000000422e-01,3.000000000000000000e+01,2.870000000000000000e+02
1.000000000000000000e+00,9.753100000000000103e-01,3.000000000000000000e+01,2.890000000000000000e+02
1.000000000000000000e+00,9.380500000000000504e-01,1.247000000000000064e+01,2.920000000000000000e+02
1.000000000000000000e+00,5.987099999999999644e-01,3.000000000000000000e+01,2.940000000000000000e+02
1.000000000000000000e+00,7.968100000000000183e-01,3.000000000000000000e+01,2.970000000000000000e+02
1.000000000000000000e+00,8.370300000000000518e-01,3.000000000000000000e+01,2.990000000000000000e+02
1.000000000000000000e+00,9.816899999999999515e-01,3.000000000000000000e+01,3.020000000000000000e+02
1.000000000000000000e+00,9.757400000000000517e-01,6.000000000000000000e+01,3.040000000000000000e+02
1.000000000000000000e+00,9.545400000000000551e-01,3.000000000000000000e+01,3.050000000000000000e+02
1.000000000000000000e+00,9.041599999999999637e-01,3.000000000000000000e+01,3.060000000000000000e+02
1.000000000000000000e+00,9.599900000000000100e-01,3.000000000000000000e+01,3.090000000000000000e+02
1.000000000000000000e+00,9.562000000000000499e-01,6.000000000000000000e+01,3.110000000000000000e+02
1.000000000000000000e+00,8.641600000000000392e-01,3.000000000000000000e+01,3.120000000000000000e+02
1.000000000000000000e+00,8.700299999999999701e-01,6.000000000000000000e+01,3.130000000000000000e+02
1.000000000000000000e+00,9.595099999999999740e-01,3.000000000000000000e+01,3.150000000000000000e+02
1.000000000000000000e+00,9.481699999999999573e-01,3.000000000000000000e+01,3.200000000000000000e+02
1.000000000000000000e+00,8.128699999999999815e-01,3.000000000000000000e+01,3.220000000000000000e+02
1.000000000000000000e+00,6.979400000000000048e-01,1.826000000000000156e+01,3.230000000000000000e+02
1.000000000000000000e+00,9.215700000000000003e-01,3.000000000000000000e+01,3.280000000000000000e+02
1.000000000000000000e+00,5.735500000000000043e-01,3.000000000000000000e+01,3.300000000000000000e+02
1.000000000000000000e+00,9.608200000000000074e-01,3.000000000000000000e+01,3.320000000000000000e+02
1.000000000000000000e+00,9.687400000000000455e-01,3.000000000000000000e+01,3.330000000000000000e+02
1.000000000000000000e+00,8.794699999999999740e-01,3.000000000000000000e+01,3.340000000000000000e+02
1.000000000000000000e+00,6.114100000000000090e-01,3.000000000000000000e+01,3.380000000000000000e+02
1.000000000000000000e+00,8.994799999999999462e-01,3.000000000000000000e+01,3.390000000000000000e+02
1.000000000000000000e+00,7.984999999999999876e-01,3.000000000000000000e+01,3.410000000000000000e+02
1.000000000000000000e+00,9.178100000000000147e-01,3.000000000000000000e+01,3.460000000000000000e+02
1.000000000000000000e+00,4.570500000000000118e-01,3.000000000000000000e+01,3.470000000000000000e+02
1.000000000000000000e+00,7.722999999999999865e-01,3.000000000000000000e+01,3.490000000000000000e+02
1.000000000000000000e+00,9.543599999999999861e-01,3.000000000000000000e+01,3.500000000000000000e+02
1.000000000000000000e+00,9.651999999999999469e-01,3.000000000000000000e+01,3.510000000000000000e+02
1.000000000000000000e+00,9.768000000000000016e-01,3.000000000000000000e+01,3.520000000000000000e+02
1.000000000000000000e+00,6.424199999999999910e-01,3.000000000000000000e+01,3.540000000000000000e+02
1.000000000000000000e+00,5.746599999999999486e-01,6.000000000000000000e+01,3.550000000000000000e+02
1.000000000000000000e+00,9.483099999999999863e-01,3.000000000000000000e+01,3.560000000000000000e+02
1.000000000000000000e+00,9.373200000000000420e-01,6.000000000000000000e+01,3.580000000000000000e+02
1.000000000000000000e+00,8.804300000000000459e-01,3.000000000000000000e+01,3.590000000000000000e+02
1.000000000000000000e+00,6.464400000000000146e-01,3.000000000000000000e+01,3.610000000000000000e+02
1.000000000000000000e+00,5.713899999999999535e-01,3.000000000000000000e+01,3.630000000000000000e+02
1.000000000000000000e+00,9.753600000000000048e-01,3.000000000000000000e+01,3.640000000000000000e+02
1.000000000000000000e+00,9.329499999999999460e-01,3.000000000000000000e+01,3.650000000000000000e+02
1.000000000000000000e+00,7.887600000000000167e-01,3.000000000000000000e+01,3.660000000000000000e+02
1.000000000000000000e+00,6.639300000000000201e-01,3.000000000000000000e+01,3.670000000000000000e+02
1.000000000000000000e+00,5.136199999999999655e-01,3.000000000000000000e+01,3.690000000000000000e+02
1.000000000000000000e+00,9.773500000000000520e-01,3.000000000000000000e+01,3.710000000000000000e+02
1.000000000000000000e+00,4.880599999999999938e-01,3.000000000000000000e+01,3.740000000000000000e+02
1.000000000000000000e+00,8.469100000000000517e-01,3.000000000000000000e+01,3.760000000000000000e+02
1.000000000000000000e+00,9.083799999999999653e-01,1.471000000000000085e+01,3.770000000000000000e+02
1.000000000000000000e+00,4.504299999999999971e-01,3.000000000000000000e+01,3.780000000000000000e+02
1.000000000000000000e+00,8.810400000000000453e-01,3.000000000000000000e+01,3.810000000000000000e+02
1.000000000000000000e+00,7.737600000000000033e-01,6.000000000000000000e+01,3.820000000000000000e+02
1.000000000000000000e+00,8.658900000000000485e-01,2.228999999999999915e+01,3.830000000000000000e+02
1.000000000000000000e+00,4.674200000000000021e-01,3.000000000000000000e+01,3.860000000000000000e+02
1.000000000000000000e+00,9.387600000000000389e-01,3.000000000000000000e+01,3.870000000000000000e+02
1.000000000000000000e+00,8.087999999999999634e-01,5.710000000000000142e+01,3.880000000000000000e+02
1.000000000000000000e+00,9.134600000000000497e-01,3.000000000000000000e+01,3.910000000000000000e+02
1.000000000000000000e+00,9.250199999999999534e-01,3.000000000000000000e+01,3.930000000000000000e+02
1.000000000000000000e+00,9.716900000000000537e-01,3.000000000000000000e+01,3.980000000000000000e+02
1.000000000000000000e+00,5.681000000000000494e-01,3.000000000000000000e+01,4.030000000000000000e+02
1.000000000000000000e+00,4.553099999999999925e-01,3.000000000000000000e+01,4.070000000000000000e+02
1.000000000000000000e+00,9.635599999999999721e-01,3.000000000000000000e+01,4.080000000000000000e+02
1.000000000000000000e+00,9.449199999999999822e-01,3.000000000000000000e+01,4.090000000000000000e+02
1.000000000000000000e+00,5.559199999999999697e-01,2.114999999999999858e+01,4.100000000000000000e+02
1.000000000000000000e+00,9.755399999999999627e-01,3.000000000000000000e+01,4.160000000000000000e+02
1.000000000000000000e+00,5.460500000000000353e-01,3.000000000000000000e+01,4.170000000000000000e+02
1.000000000000000000e+00,9.192599999999999660e-01,3.000000000000000000e+01,4.180000000000000000e+02
1.000000000000000000e+00,9.565500000000000114e-01,6.000000000000000000e+01,4.190000000000000000e+02
1.000000000000000000e+00,7.008900000000000130e-01,3.000000000000000000e+01,4.230000000000000000e+02
1.000000000000000000e+00,6.510899999999999466e-01,2.894999999999999929e+01,4.250000000000000000e+02
1.000000000000000000e+00,8.713499999999999579e-01,3.000000000000000000e+01,4.260000000000000000e+02
1.000000000000000000e+00,8.437500000000000000e-01,2.355000000000000071e+01,4.290000000000000000e+02
1.000000000000000000e+00,9.555299999999999905e-01,3.000000000000000000e+01,4.330000000000000000e+02
1.000000000000000000e+00,9.802400000000000002e-01,3.000000000000000000e+01,4.350000000000000000e+02
1.000000000000000000e+00,9.690499999999999670e-01,3.000000000000000000e+01,4.360000000000000000e+02
1.000000000000000000e+00,8.919899999999999496e-01,3.000000000000000000e+01,4.370000000000000000e+02
1.000000000000000000e+00,9.067800000000000304e-01,3.000000000000000000e+01,4.400000000000000000e+02
1.000000000000000000e+00,5.929799999999999516e-01,3.000000000000000000e+01,4.460000000000000000e+02
1.000000000000000000e+00,5.984000000000000430e-01,3.000000000000000000e+01,4.470000000000000000e+02
1.000000000000000000e+00,7.391999999999999682e-01,3.000000000000000000e+01,4.480000000000000000e+02
1.000000000000000000e+00,8.833900000000000086e-01,3.000000000000000000e+01,4.500000000000000000e+02
1.000000000000000000e+00,9.027500000000000524e-01,3.000000000000000000e+01,4.520000000000000000e+02
1.000000000000000000e+00,9.679799999999999516e-01,6.000000000000000000e+01,4.540000000000000000e+02
1.000000000000000000e+00,7.495000000000000551e-01,6.000000000000000000e+01,4.550000000000000000e+02
1.000000000000000000e+00,7.009100000000000330e-01,3.000000000000000000e+01,4.580000000000000000e+02
1.000000000000000000e+00,9.292399999999999549e-01,3.000000000000000000e+01,4.590000000000000000e+02
1.000000000000000000e+00,4.596500000000000030e-01,3.000000000000000000e+01,4.600000000000000000e+02
1.000000000000000000e+00,8.790900000000000380e-01,3.000000000000000000e+01,4.620000000000000000e+02
1.000000000000000000e+00,8.290199999999999791e-01,6.000000000000000000e+01,4.630000000000000000e+02
1.000000000000000000e+00,9.584500000000000242e-01,1.324000000000000021e+01,4.640000000000000000e+02
1.000000000000000000e+00,9.425299999999999789e-01,4.211999999999999744e+01,4.670000000000000000e+02
1.000000000000000000e+00,9.730199999999999960e-01,3.000000000000000000e+01,4.690000000000000000e+02
1.000000000000000000e+00,6.292900000000000160e-01,1.541000000000000014e+01,4.710000000000000000e+02
1.000000000000000000e+00,9.132500000000000062e-01,3.000000000000000000e+01,4.720000000000000000e+02
1.000000000000000000e+00,9.280100000000000016e-01,3.000000000000000000e+01,4.750000000000000000e+02
1.000000000000000000e+00,9.535299999999999887e-01,3.000000000000000000e+01,4.760000000000000000e+02
1.000000000000000000e+00,8.748200000000000420e-01,3.000000000000000000e+01,4.780000000000000000e+02
1.000000000000000000e+00,6.754999999999999893e-01,3.000000000000000000e+01,4.790000000000000000e+02
1.000000000000000000e+00,9.146600000000000286e-01,3.000000000000000000e+01,4.800000000000000000e+02
1.000000000000000000e+00,9.680800000000000516e-01,3.000000000000000000e+01,4.810000000000000000e+02
1.000000000000000000e+00,8.924400000000000110e-01,3.000000000000000000e+01,4.830000000000000000e+02
1.000000000000000000e+00,6.721500000000000252e-01,6.000000000000000000e+01,4.870000000000000000e+02
1.000000000000000000e+00,9.699100000000000499e-01,3.000000000000000000e+01,4.880000000000000000e+02
1.000000000000000000e+00,8.510499999999999732e-01,3.000000000000000000e+01,4.900000000000000000e+02
1.000000000000000000e+00,9.420699999999999630e-01,3.000000000000000000e+01,4.910000000000000000e+02
1.000000000000000000e+00,6.492999999999999883e-01,3.000000000000000000e+01,4.920000000000000000e+02
1.000000000000000000e+00,8.186799999999999633e-01,6.000000000000000000e+01,4.950000000000000000e+02
1.000000000000000000e+00,6.604100000000000525e-01,3.000000000000000000e+01,4.960000000000000000e+02
1.000000000000000000e+00,8.376599999999999602e-01,3.000000000000000000e+01,4.990000000000000000e+02
1.000000000000000000e+00,9.672399999999999887e-01,3.000000000000000000e+01,5.000000000000000000e+02
1.000000000000000000e+00,6.946900000000000297e-01,3.000000000000000000e+01,5.010000000000000000e+02
1.000000000000000000e+00,8.978800000000000114e-01,3.000000000000000000e+01,5.050000000000000000e+02
1.000000000000000000e+00,9.811299999999999466e-01,3.000000000000000000e+01,5.060000000000000000e+02
1.000000000000000000e+00,6.462200000000000166e-01,3.000000000000000000e+01,5.070000000000000000e+02
1.000000000000000000e+00,7.598899999999999544e-01,3.000000000000000000e+01,5.100000000000000000e+02
1.000000000000000000e+00,8.888399999999999634e-01,3.000000000000000000e+01,5.120000000000000000e+02
1.000000000000000000e+00,9.609799999999999454e-01,3.000000000000000000e+01,5.150000000000000000e+02
1.000000000000000000e+00,9.689200000000000035e-01,3.000000000000000000e+01,5.180000000000000000e+02
1.000000000000000000e+00,7.916900000000000048e-01,6.000000000000000000e+01,5.250000000000000000e+02
1.000000000000000000e+00,7.680700000000000305e-01,2.419000000000000128e+01,5.260000000000000000e+02
1.000000000000000000e+00,9.315700000000000092e-01,3.000000000000000000e+01,5.270000000000000000e+02
1.000000000000000000e+00,8.123500000000000165e-01,3.000000000000000000e+01,5.280000000000000000e+02
1.000000000000000000e+00,9.355499999999999927e-01,3.000000000000000000e+01,5.310000000000000000e+02
1.000000000000000000e+00,9.523599999999999843e-01,3.000000000000000000e+01,5.320000000000000000e+02
1.000000000000000000e+00,8.600700000000000012e-01,6.000000000000000000e+01,5.340000000000000000e+02
1.000000000000000000e+00,9.427999999999999714e-01,3.000000000000000000e+01,5.380000000000000000e+02
1.000000000000000000e+00,8.292899999999999716e-01,3.000000000000000000e+01,5.400000000000000000e+02
1.000000000000000000e+00,7.773600000000000509e-01,3.000000000000000000e+01,5.410000000000000000e+02
1.000000000000000000e+00,8.602999999999999536e-01,3.000000000000000000e+01,5.430000000000000000e+02
1.000000000000000000e+00,9.129899999999999682e-01,3.000000000000000000e+01,5.460000000000000000e+02
1.000000000000000000e+00,8.451699999999999768e-01,1.282000000000000028e+01,5.480000000000000000e+02
1.000000000000000000e+00,9.377499999999999725e-01,4.103000000000000114e+01,5.520000000000000000e+02
1.000000000000000000e+00,9.841199999999999948e-01,3.000000000000000000e+01,5.530000000000000000e+02
1.000000000000000000e+00,9.358300000000000507e-01,3.196999999999999886e+01,5.550000000000000000e+02
1.000000000000000000e+00,7.877600000000000158e-01,2.878999999999999915e+01,5.580000000000000000e+02
1.000000000000000000e+00,8.491100000000000314e-01,6.000000000000000000e+01,5.600000000000000000e+02
1.000000000000000000e+00,9.516400000000000414e-01,6.000000000000000000e+01,5.660000000000000000e+02
1.000000000000000000e+00,8.648900000000000476e-01,3.000000000000000000e+01,5.680000000000000000e+02
1.000000000000000000e+00,8.619900000000000340e-01,3.000000000000000000e+01,5.690000000000000000e+02
1.000000000000000000e+00,9.494000000000000217e-01,6.000000000000000000e+01,5.710000000000000000e+02
1.000000000000000000e+00,7.477000000000000313e-01,5.796999999999999886e+01,5.730000000000000000e+02
1.000000000000000000e+00,8.177900000000000169e-01,3.000000000000000000e+01,5.740000000000000000e+02
1.000000000000000000e+00,9.680800000000000516e-01,3.000000000000000000e+01,5.750000000000000000e+02
1.000000000000000000e+00,9.693300000000000249e-01,3.000000000000000000e+01,5.760000000000000000e+02
1.000000000000000000e+00,6.954099999999999726e-01,3.000000000000000000e+01,5.800000000000000000e+02
1.000000000000000000e+00,8.747399999999999620e-01,3.000000000000000000e+01,5.810000000000000000e+02
1.000000000000000000e+00,9.566799999999999748e-01,3.000000000000000000e+01,5.820000000000000000e+02
1.000000000000000000e+00,7.838500000000000467e-01,6.000000000000000000e+01,5.880000000000000000e+02
1.000000000000000000e+00,7.619000000000000217e-01,3.000000000000000000e+01,5.900000000000000000e+02
1.000000000000000000e+00,9.181899999999999507e-01,3.000000000000000000e+01,5.940000000000000000e+02
1.000000000000000000e+00,6.816499999999999782e-01,1.178999999999999915e+01,5.970000000000000000e+02
1.000000000000000000e+00,9.613300000000000178e-01,3.000000000000000000e+01,5.990000000000000000e+02
1.000000000000000000e+00,9.680699999999999861e-01,3.000000000000000000e+01,6.000000000000000000e+02
1.000000000000000000e+00,4.958000000000000185e-01,6.000000000000000000e+01,6.020000000000000000e+02
1.000000000000000000e+00,9.680999999999999606e-01,3.000000000000000000e+01,6.060000000000000000e+02
1.000000000000000000e+00,8.731900000000000217e-01,3.000000000000000000e+01,6.070000000000000000e+02
1.000000000000000000e+00,7.457500000000000240e-01,1.566999999999999993e+01,6.090000000000000000e+02
1.000000000000000000e+00,8.372100000000000097e-01,3.000000000000000000e+01,6.150000000000000000e+02
1.000000000000000000e+00,9.553500000000000325e-01,3.000000000000000000e+01,6.160000000000000000e+02
1.000000000000000000e+00,7.359700000000000131e-01,3.000000000000000000e+01,6.170000000000000000e+02
1.000000000000000000e+00,7.737000000000000544e-01,2.560999999999999943e+01,6.180000000000000000e+02
1.000000000000000000e+00,7.977999999999999536e-01,3.000000000000000000e+01,6.220000000000000000e+02
1.000000000000000000e+00,9.244700000000000140e-01,5.996999999999999886e+01,6.270000000000000000e+02
1.000000000000000000e+00,9.655899999999999483e-01,3.000000000000000000e+01,6.280000000000000000e+02
1.000000000000000000e+00,5.327899999999999858e-01,1.839999999999999858e+01,6.300000000000000000e+02
1.000000000000000000e+00,4.370800000000000241e-01,3.000000000000000000e+01,6.310000000000000000e+02
1.000000000000000000e+00,8.909899999999999487e-01,3.882999999999999829e+01,6.320000000000000000e+02
1.000000000000000000e+00,9.191899999999999515e-01,3.000000000000000000e+01,6.330000000000000000e+02
1.000000000000000000e+00,9.094799999999999551e-01,3.000000000000000000e+01,6.370000000000000000e+02
1.000000000000000000e+00,7.628599999999999826e-01,3.000000000000000000e+01,6.390000000000000000e+02
1.000000000000000000e+00,6.534400000000000208e-01,6.000000000000000000e+01,6.410000000000000000e+02
1.000000000000000000e+00,7.767399999999999860e-01,6.000000000000000000e+01,6.420000000000000000e+02
1.000000000000000000e+00,7.985700000000000021e-01,3.000000000000000000e+01,6.440000000000000000e+02
1.000000000000000000e+00,9.741199999999999859e-01,3.000000000000000000e+01,6.470000000000000000e+02
1.000000000000000000e+00,9.098699999999999566e-01,3.000000000000000000e+01,6.510000000000000000e+02
1.000000000000000000e+00,6.012100000000000222e-01,6.000000000000000000e+01,6.520000000000000000e+02
1.000000000000000000e+00,9.486799999999999677e-01,3.000000000000000000e+01,6.540000000000000000e+02
1.000000000000000000e+00,8.645399999999999752e-01,2.644999999999999929e+01,6.550000000000000000e+02
1.000000000000000000e+00,8.973700000000000010e-01,3.000000000000000000e+01,6.610000000000000000e+02
1.000000000000000000e+00,8.327200000000000157e-01,3.000000000000000000e+01,6.630000000000000000e+02
1.000000000000000000e+00,8.487400000000000500e-01,3.000000000000000000e+01,6.650000000000000000e+02
1.000000000000000000e+00,4.046100000000000252e-01,3.000000000000000000e+01,6.670000000000000000e+02
1.000000000000000000e+00,6.793000000000000149e-01,6.000000000000000000e+01,6.680000000000000000e+02
1.000000000000000000e+00,5.489199999999999635e-01,3.000000000000000000e+01,6.690000000000000000e+02
1.000000000000000000e+00,7.394300000000000317e-01,3.000000000000000000e+01,6.710000000000000000e+02
1.000000000000000000e+00,3.779699999999999727e-01,3.000000000000000000e+01,6.720000000000000000e+02
1.000000000000000000e+00,6.888300000000000534e-01,6.000000000000000000e+01,6.760000000000000000e+02
1.000000000000000000e+00,6.646699999999999831e-01,3.000000000000000000e+01,6.770000000000000000e+02
1.000000000000000000e+00,6.654600000000000515e-01,3.000000000000000000e+01,6.780000000000000000e+02
1.000000000000000000e+00,5.012999999999999678e-01,3.000000000000000000e+01,6.810000000000000000e+02
1.000000000000000000e+00,6.155599999999999961e-01,3.000000000000000000e+01,6.820000000000000000e+02
1.000000000000000000e+00,9.740100000000000424e-01,3.000000000000000000e+01,6.830000000000000000e+02
1.000000000000000000e+00,8.561299999999999466e-01,5.089000000000000057e+01,6.850000000000000000e+02
1.000000000000000000e+00,5.708199999999999941e-01,3.000000000000000000e+01,6.860000000000000000e+02
1.000000000000000000e+00,9.728999999999999870e-01,3.000000000000000000e+01,6.890000000000000000e+02
1.000000000000000000e+00,4.194700000000000095e-01,3.000000000000000000e+01,6.920000000000000000e+02
1.000000000000000000e+00,8.998800000000000132e-01,3.000000000000000000e+01,6.940000000000000000e+02
1.000000000000000000e+00,7.897600000000000176e-01,6.000000000000000000e+01,7.030000000000000000e+02
1.000000000000000000e+00,7.973000000000000087e-01,3.000000000000000000e+01,7.080000000000000000e+02
1.000000000000000000e+00,9.582199999999999607e-01,6.000000000000000000e+01,7.100000000000000000e+02
1.000000000000000000e+00,6.398700000000000498e-01,2.351999999999999957e+01,7.130000000000000000e+02
1.000000000000000000e+00,9.354900000000000437e-01,6.000000000000000000e+01,7.140000000000000000e+02
1.000000000000000000e+00,7.071899999999999853e-01,3.000000000000000000e+01,7.150000000000000000e+02
1.000000000000000000e+00,4.571000000000000063e-01,3.000000000000000000e+01,7.170000000000000000e+02
1.000000000000000000e+00,9.000500000000000167e-01,2.046999999999999886e+01,7.200000000000000000e+02
1.000000000000000000e+00,8.274799999999999933e-01,6.000000000000000000e+01,7.210000000000000000e+02
1.000000000000000000e+00,5.971199999999999841e-01,3.000000000000000000e+01,7.260000000000000000e+02
1.000000000000000000e+00,6.129000000000000004e-01,3.000000000000000000e+01,7.270000000000000000e+02
1.000000000000000000e+00,7.539799999999999836e-01,3.000000000000000000e+01,7.290000000000000000e+02
1.000000000000000000e+00,9.240599999999999925e-01,3.000000000000000000e+01,7.310000000000000000e+02
1.000000000000000000e+00,5.604000000000000092e-01,3.000000000000000000e+01,7.350000000000000000e+02
1.000000000000000000e+00,5.339300000000000157e-01,3.000000000000000000e+01,7.360000000000000000e+02
1.000000000000000000e+00,9.729200000000000070e-01,3.000000000000000000e+01,7.380000000000000000e+02
1.000000000000000000e+00,8.541699999999999848e-01,3.000000000000000000e+01,7.430000000000000000e+02
1.000000000000000000e+00,6.002300000000000413e-01,6.000000000000000000e+01,7.470000000000000000e+02
1.000000000000000000e+00,7.128299999999999637e-01,3.000000000000000000e+01,7.480000000000000000e+02
1.000000000000000000e+00,8.322800000000000198e-01,3.000000000000000000e+01,7.500000000000000000e+02
1.000000000000000000e+00,9.114400000000000279e-01,3.000000000000000000e+01,7.510000000000000000e+02
1.000000000000000000e+00,7.872099999999999653e-01,1.325999999999999979e+01,7.520000000000000000e+02
1.000000000000000000e+00,9.040399999999999547e-01,3.000000000000000000e+01,7.530000000000000000e+02
1.000000000000000000e+00,9.640499999999999625e-01,3.000000000000000000e+01,7.550000000000000000e+02
1.000000000000000000e+00,8.006400000000000183e-01,6.000000000000000000e+01,7.560000000000000000e+02
1.000000000000000000e+00,5.680600000000000094e-01,3.000000000000000000e+01,7.570000000000000000e+02
1.000000000000000000e+00,9.180700000000000527e-01,3.000000000000000000e+01,7.580000000000000000e+02
1.000000000000000000e+00,9.606000000000000094e-01,3.000000000000000000e+01,7.600000000000000000e+02
1.000000000000000000e+00,8.983700000000000019e-01,3.000000000000000000e+01,7.640000000000000000e+02
1.000000000000000000e+00,8.894800000000000484e-01,3.000000000000000000e+01,7.710000000000000000e+02
1.000000000000000000e+00,9.656500000000000083e-01,3.000000000000000000e+01,7.770000000000000000e+02
1.000000000000000000e+00,7.223800000000000221e-01,3.000000000000000000e+01,7.780000000000000000e+02
1.000000000000000000e+00,9.626200000000000312e-01,3.000000000000000000e+01,7.800000000000000000e+02
1.000000000000000000e+00,8.972499999999999920e-01,3.000000000000000000e+01,7.830000000000000000e+02
1.000000000000000000e+00,9.812100000000000266e-01,3.000000000000000000e+01,7.910000000000000000e+02
1.000000000000000000e+00,7.985200000000000076e-01,3.000000000000000000e+01,7.940000000000000000e+02
1.000000000000000000e+00,9.628100000000000547e-01,3.000000000000000000e+01,7.960000000000000000e+02
1.000000000000000000e+00,8.418200000000000127e-01,3.000000000000000000e+01,7.970000000000000000e+02
1.000000000000000000e+00,9.384799999999999809e-01,6.000000000000000000e+01,7.990000000000000000e+02
1.000000000000000000e+00,6.564200000000000035e-01,3.000000000000000000e+01,8.000000000000000000e+02
1.000000000000000000e+00,9.469699999999999784e-01,3.000000000000000000e+01,8.010000000000000000e+02
1.000000000000000000e+00,8.785899999999999821e-01,3.000000000000000000e+01,8.040000000000000000e+02
1.000000000000000000e+00,9.513899999999999579e-01,3.000000000000000000e+01,8.050000000000000000e+02
1.000000000000000000e+00,5.599300000000000388e-01,3.000000000000000000e+01,8.060000000000000000e+02
1.000000000000000000e+00,8.850999999999999979e-01,3.000000000000000000e+01,8.080000000000000000e+02
1.000000000000000000e+00,4.937099999999999822e-01,3.000000000000000000e+01,8.120000000000000000e+02
1.000000000000000000e+00,8.668299999999999894e-01,3.000000000000000000e+01,8.150000000000000000e+02
1.000000000000000000e+00,4.283799999999999830e-01,1.084999999999999964e+01,8.160000000000000000e+02
1.000000000000000000e+00,7.005400000000000515e-01,3.000000000000000000e+01,8.210000000000000000e+02
1.000000000000000000e+00,7.140900000000000025e-01,3.000000000000000000e+01,8.220000000000000000e+02
1.000000000000000000e+00,9.536299999999999777e-01,3.000000000000000000e+01,8.230000000000000000e+02
1.000000000000000000e+00,6.410299999999999887e-01,3.000000000000000000e+01,8.240000000000000000e+02
1.000000000000000000e+00,9.760799999999999477e-01,3.000000000000000000e+01,8.250000000000000000e+02
1.000000000000000000e+00,5.843699999999999450e-01,3.000000000000000000e+01,8.270000000000000000e+02
1.000000000000000000e+00,6.245399999999999840e-01,3.000000000000000000e+01,8.280000000000000000e+02
1.000000000000000000e+00,9.734399999999999720e-01,3.000000000000000000e+01,8.290000000000000000e+02
1.000000000000000000e+00,7.136200000000000321e-01,3.000000000000000000e+01,8.300000000000000000e+02
1.000000000000000000e+00,9.551699999999999635e-01,6.000000000000000000e+01,8.310000000000000000e+02
1.000000000000000000e+00,6.085399999999999698e-01,3.000000000000000000e+01,8.320000000000000000e+02
1.000000000000000000e+00,6.180299999999999683e-01,3.000000000000000000e+01,8.330000000000000000e+02
1.000000000000000000e+00,9.709699999999999998e-01,3.000000000000000000e+01,8.340000000000000000e+02
1.000000000000000000e+00,9.478100000000000414e-01,3.000000000000000000e+01,8.360000000000000000e+02
1.000000000000000000e+00,9.450499999999999456e-01,3.000000000000000000e+01,8.390000000000000000e+02
1.000000000000000000e+00,4.246099999999999874e-01,6.000000000000000000e+01,8.420000000000000000e+02
1.000000000000000000e+00,8.448900000000000299e-01,3.000000000000000000e+01,8.430000000000000000e+02
1.000000000000000000e+00,9.624599999999999822e-01,3.000000000000000000e+01,8.450000000000000000e+02
1.000000000000000000e+00,8.745399999999999840e-01,1.230000000000000071e+01,8.460000000000000000e+02
1.000000000000000000e+00,8.808099999999999818e-01,3.000000000000000000e+01,8.470000000000000000e+02
1.000000000000000000e+00,9.481899999999999773e-01,3.000000000000000000e+01,8.520000000000000000e+02
1.000000000000000000e+00,7.086700000000000221e-01,3.000000000000000000e+01,8.530000000000000000e+02
1.000000000000000000e+00,9.070799999999999974e-01,3.000000000000000000e+01,8.540000000000000000e+02
1.000000000000000000e+00,9.224599999999999467e-01,3.000000000000000000e+01,8.560000000000000000e+02
1.000000000000000000e+00,9.850499999999999812e-01,3.000000000000000000e+01,8.580000000000000000e+02
1.000000000000000000e+00,8.187900000000000178e-01,3.000000000000000000e+01,8.590000000000000000e+02
1.000000000000000000e+00,9.463500000000000245e-01,3.000000000000000000e+01,8.610000000000000000e+02
1.000000000000000000e+00,9.563500000000000334e-01,6.000000000000000000e+01,8.620000000000000000e+02
1.000000000000000000e+00,9.226799999999999446e-01,3.000000000000000000e+01,8.630000000000000000e+02
1.000000000000000000e+00,8.382100000000000106e-01,3.000000000000000000e+01,8.640000000000000000e+02
1.000000000000000000e+00,9.379800000000000360e-01,3.000000000000000000e+01,8.660000000000000000e+02
1.000000000000000000e+00,5.940900000000000070e-01,3.000000000000000000e+01,8.710000000000000000e+02
1.000000000000000000e+00,7.675199999999999800e-01,1.901000000000000156e+01,8.740000000000000000e+02
1.000000000000000000e+00,9.309800000000000297e-01,3.000000000000000000e+01,8.790000000000000000e+02
1.000000000000000000e+00,9.538699999999999957e-01,3.000000000000000000e+01,8.810000000000000000e+02
1.000000000000000000e+00,8.983799999999999564e-01,3.000000000000000000e+01,8.830000000000000000e+02
1.000000000000000000e+00,9.369199999999999751e-01,3.000000000000000000e+01,8.900000000000000000e+02
1.000000000000000000e+00,7.986900000000000110e-01,3.000000000000000000e+01,8.910000000000000000e+02
1.000000000000000000e+00,9.228399999999999936e-01,3.000000000000000000e+01,8.930000000000000000e+02
1.000000000000000000e+00,7.672799999999999621e-01,3.350999999999999801e+01,8.960000000000000000e+02
1.000000000000000000e+00,9.091500000000000137e-01,3.000000000000000000e+01,8.970000000000000000e+02
1.000000000000000000e+00,9.698900000000000299e-01,6.000000000000000000e+01,8.990000000000000000e+02
1.000000000000000000e+00,7.098999999999999755e-01,2.508999999999999986e+01,9.010000000000000000e+02
1.000000000000000000e+00,6.562599999999999545e-01,3.000000000000000000e+01,9.050000000000000000e+02
1.000000000000000000e+00,8.690999999999999837e-01,5.571000000000000085e+01,9.070000000000000000e+02
1.000000000000000000e+00,7.333300000000000374e-01,3.000000000000000000e+01,9.090000000000000000e+02
1.000000000000000000e+00,9.698900000000000299e-01,3.000000000000000000e+01,9.100000000000000000e+02
1.000000000000000000e+00,9.451500000000000457e-01,3.000000000000000000e+01,9.110000000000000000e+02
1.000000000000000000e+00,9.236999999999999655e-01,3.000000000000000000e+01,9.180000000000000000e+02
1.000000000000000000e+00,9.772899999999999920e-01,6.000000000000000000e+01,9.220000000000000000e+02
1.000000000000000000e+00,6.566899999999999959e-01,3.000000000000000000e+01,9.260000000000000000e+02
1.000000000000000000e+00,9.169899999999999718e-01,3.000000000000000000e+01,9.280000000000000000e+02
1.000000000000000000e+00,9.579600000000000337e-01,6.000000000000000000e+01,9.290000000000000000e+02
1.000000000000000000e+00,6.063399999999999901e-01,3.000000000000000000e+01,9.360000000000000000e+02
1.000000000000000000e+00,5.712699999999999445e-01,3.000000000000000000e+01,9.380000000000000000e+02
1.000000000000000000e+00,5.478899999999999881e-01,6.000000000000000000e+01,9.400000000000000000e+02
1.000000000000000000e+00,8.744399999999999951e-01,3.000000000000000000e+01,9.420000000000000000e+02
1.000000000000000000e+00,8.820700000000000207e-01,6.000000000000000000e+01,9.430000000000000000e+02
1.000000000000000000e+00,8.447099999999999609e-01,6.000000000000000000e+01,9.450000000000000000e+02
1.000000000000000000e+00,9.180800000000000072e-01,6.000000000000000000e+01,9.460000000000000000e+02
1.000000000000000000e+00,9.825800000000000090e-01,3.000000000000000000e+01,9.470000000000000000e+02
1.000000000000000000e+00,5.161999999999999922e-01,3.000000000000000000e+01,9.480000000000000000e+02
1.000000000000000000e+00,9.829099999999999504e-01,3.000000000000000000e+01,9.490000000000000000e+02
1.000000000000000000e+00,9.881299999999999528e-01,3.000000000000000000e+01,9.500000000000000000e+02
1.000000000000000000e+00,6.953899999999999526e-01,3.000000000000000000e+01,9.550000000000000000e+02
1.000000000000000000e+00,8.057499999999999662e-01,3.000000000000000000e+01,9.600000000000000000e+02
1.000000000000000000e+00,9.153700000000000170e-01,3.000000000000000000e+01,9.610000000000000000e+02
1.000000000000000000e+00,6.957900000000000196e-01,3.000000000000000000e+01,9.630000000000000000e+02
1.000000000000000000e+00,7.223800000000000221e-01,3.000000000000000000e+01,9.650000000000000000e+02
1.000000000000000000e+00,8.602100000000000302e-01,3.000000000000000000e+01,9.660000000000000000e+02
1.000000000000000000e+00,9.036199999999999788e-01,6.000000000000000000e+01,9.670000000000000000e+02
1.000000000000000000e+00,9.267999999999999572e-01,3.000000000000000000e+01,9.690000000000000000e+02
1.000000000000000000e+00,6.822700000000000431e-01,3.000000000000000000e+01,9.700000000000000000e+02
1.000000000000000000e+00,6.136700000000000488e-01,3.000000000000000000e+01,9.730000000000000000e+02
1.000000000000000000e+00,8.964100000000000401e-01,3.000000000000000000e+01,9.760000000000000000e+02
1.000000000000000000e+00,6.759399999999999853e-01,3.000000000000000000e+01,9.780000000000000000e+02
1.000000000000000000e+00,9.616599999999999593e-01,1.155000000000000071e+01,9.800000000000000000e+02
1.000000000000000000e+00,9.563800000000000079e-01,3.000000000000000000e+01,9.810000000000000000e+02
1.000000000000000000e+00,6.095500000000000362e-01,3.000000000000000000e+01,9.850000000000000000e+02
1.000000000000000000e+00,8.916800000000000281e-01,3.000000000000000000e+01,9.860000000000000000e+02
1.000000000000000000e+00,9.522899999999999698e-01,3.000000000000000000e+01,9.870000000000000000e+02
1.000000000000000000e+00,7.513300000000000534e-01,3.000000000000000000e+01,9.900000000000000000e+02
1.000000000000000000e+00,9.013999999999999790e-01,3.000000000000000000e+01,9.920000000000000000e+02
1.000000000000000000e+00,9.240399999999999725e-01,3.000000000000000000e+01,9.940000000000000000e+02
1.000000000000000000e+00,9.623899999999999677e-01,3.000000000000000000e+01,9.960000000000000000e+02
1.000000000000000000e+00,7.846800000000000441e-01,3.000000000000000000e+01,9.980000000000000000e+02
1.000000000000000000e+00,7.321299999999999475e-01,3.000000000000000000e+01,9.990000000000000000e+02
1.000000000000000000e+00,7.020399999999999974e-01,3.000000000000000000e+01,1.000000000000000000e+03
1.000000000000000000e+00,7.897600000000000176e-01,3.000000000000000000e+01,1.001000000000000000e+03
1.000000000000000000e+00,9.677700000000000191e-01,3.000000000000000000e+01,1.003000000000000000e+03
1.000000000000000000e+00,9.466200000000000170e-01,3.395000000000000284e+01,1.008000000000000000e+03
1.000000000000000000e+00,9.899599999999999511e-01,3.000000000000000000e+01,1.010000000000000000e+03
1.000000000000000000e+00,8.925899999999999945e-01,3.000000000000000000e+01,1.011000000000000000e+03
1.000000000000000000e+00,9.731999999999999540e-01,3.000000000000000000e+01,1.012000000000000000e+03
1.000000000000000000e+00,8.858599999999999808e-01,3.000000000000000000e+01,1.015000000000000000e+03
1.000000000000000000e+00,9.687000000000000055e-01,4.690999999999999659e+01,1.016000000000000000e+03
1.000000000000000000e+00,9.587400000000000366e-01,6.000000000000000000e+01,1.018000000000000000e+03
1.000000000000000000e+00,5.454400000000000359e-01,3.000000000000000000e+01,1.022000000000000000e+03
1.000000000000000000e+00,6.365499999999999492e-01,6.000000000000000000e+01,1.026000000000000000e+03
1.000000000000000000e+00,5.558800000000000407e-01,3.000000000000000000e+01,1.028000000000000000e+03
1.000000000000000000e+00,5.851199999999999735e-01,3.000000000000000000e+01,1.032000000000000000e+03
1.000000000000000000e+00,4.391700000000000048e-01,3.000000000000000000e+01,1.033000000000000000e+03
1.000000000000000000e+00,7.971599999999999797e-01,3.000000000000000000e+01,1.038000000000000000e+03
1.000000000000000000e+00,8.003599999999999604e-01,3.000000000000000000e+01,1.039000000000000000e+03
1.000000000000000000e+00,6.275100000000000122e-01,3.000000000000000000e+01,1.046000000000000000e+03
1.000000000000000000e+00,9.645200000000000440e-01,3.000000000000000000e+01,1.047000000000000000e+03
1.000000000000000000e+00,5.774599999999999733e-01,3.000000000000000000e+01,1.050000000000000000e+03
1.000000000000000000e+00,9.696900000000000519e-01,3.000000000000000000e+01,1.051000000000000000e+03
1.000000000000000000e+00,6.674600000000000533e-01,3.000000000000000000e+01,1.053000000000000000e+03
1.000000000000000000e+00,6.770699999999999497e-01,4.140999999999999659e+01,1.055000000000000000e+03
1.000000000000000000e+00,8.898200000000000554e-01,3.000000000000000000e+01,1.058000000000000000e+03
1.000000000000000000e+00,7.207999999999999963e-01,2.669000000000000128e+01,1.059000000000000000e+03
1.000000000000000000e+00,8.976800000000000335e-01,3.000000000000000000e+01,1.060000000000000000e+03
1.000000000000000000e+00,6.691099999999999826e-01,1.796999999999999886e+01,1.061000000000000000e+03
1.000000000000000000e+00,8.906199999999999672e-01,3.000000000000000000e+01,1.062000000000000000e+03
1.000000000000000000e+00,6.246399999999999730e-01,3.218999999999999773e+01,1.066000000000000000e+03
1.000000000000000000e+00,6.229599999999999582e-01,3.000000000000000000e+01,1.067000000000000000e+03
1.000000000000000000e+00,7.331900000000000084e-01,3.000000000000000000e+01,1.069000000000000000e+03
1.000000000000000000e+00,9.592199999999999616e-01,3.000000000000000000e+01,1.080000000000000000e+03
1.000000000000000000e+00,7.169799999999999507e-01,3.000000000000000000e+01,1.082000000000000000e+03
1.000000000000000000e+00,8.908800000000000052e-01,3.000000000000000000e+01,1.083000000000000000e+03
1.000000000000000000e+00,6.850600000000000023e-01,3.000000000000000000e+01,1.085000000000000000e+03
1.000000000000000000e+00,9.857599999999999696e-01,3.000000000000000000e+01,1.086000000000000000e+03
1.000000000000000000e+00,4.725400000000000156e-01,1.066999999999999993e+01,1.090000000000000000e+03
1.000000000000000000e+00,9.751199999999999868e-01,3.000000000000000000e+01,1.097000000000000000e+03
1.000000000000000000e+00,9.205299999999999594e-01,3.000000000000000000e+01,1.098000000000000000e+03
1.000000000000000000e+00,4.530699999999999728e-01,3.000000000000000000e+01,1.101000000000000000e+03
1.000000000000000000e+00,8.981900000000000439e-01,3.000000000000000000e+01,1.102000000000000000e+03
1.000000000000000000e+00,7.524699999999999722e-01,3.000000000000000000e+01,1.106000000000000000e+03
1.000000000000000000e+00,7.482799999999999452e-01,3.000000000000000000e+01,1.108000000000000000e+03
1.000000000000000000e+00,8.987600000000000033e-01,3.000000000000000000e+01,1.109000000000000000e+03
1.000000000000000000e+00,5.847599999999999465e-01,3.000000000000000000e+01,1.110000000000000000e+03
1.000000000000000000e+00,6.364499999999999602e-01,6.000000000000000000e+01,1.111000000000000000e+03
1.000000000000000000e+00,6.135800000000000143e-01,3.000000000000000000e+01,1.112000000000000000e+03
1.000000000000000000e+00,8.711999999999999744e-01,3.000000000000000000e+01,1.114000000000000000e+03
1.000000000000000000e+00,8.671799999999999509e-01,3.000000000000000000e+01,1.118000000000000000e+03
1.000000000000000000e+00,8.383000000000000451e-01,3.000000000000000000e+01,1.119000000000000000e+03
1.000000000000000000e+00,9.101099999999999746e-01,3.000000000000000000e+01,1.123000000000000000e+03
1.000000000000000000e+00,9.712800000000000322e-01,3.000000000000000000e+01,1.125000000000000000e+03
1.000000000000000000e+00,9.125400000000000178e-01,1.973000000000000043e+01,1.126000000000000000e+03
1.000000000000000000e+00,7.777300000000000324e-01,3.000000000000000000e+01,1.127000000000000000e+03
1.000000000000000000e+00,9.145600000000000396e-01,3.000000000000000000e+01,1.128000000000000000e+03
1.000000000000000000e+00,6.024300000000000210e-01,6.000000000000000000e+01,1.132000000000000000e+03
1.000000000000000000e+00,9.475900000000000434e-01,3.000000000000000000e+01,1.135000000000000000e+03
1.000000000000000000e+00,8.710299999999999709e-01,3.000000000000000000e+01,1.137000000000000000e+03
1.000000000000000000e+00,9.068399999999999794e-01,3.000000000000000000e+01,1.138000000000000000e+03
1.000000000000000000e+00,7.053500000000000325e-01,3.000000000000000000e+01,1.139000000000000000e+03
1.000000000000000000e+00,9.538999999999999702e-01,4.715999999999999659e+01,1.140000000000000000e+03
1.000000000000000000e+00,9.248899999999999899e-01,3.000000000000000000e+01,1.142000000000000000e+03
1.000000000000000000e+00,8.520600000000000396e-01,3.000000000000000000e+01,1.143000000000000000e+03
1.000000000000000000e+00,9.419499999999999540e-01,3.000000000000000000e+01,1.146000000000000000e+03
1.000000000000000000e+00,9.623599999999999932e-01,3.000000000000000000e+01,1.147000000000000000e+03
1.000000000000000000e+00,9.525099999999999678e-01,3.000000000000000000e+01,1.151000000000000000e+03
1.000000000000000000e+00,8.367099999999999538e-01,3.000000000000000000e+01,1.155000000000000000e+03
1.000000000000000000e+00,6.916799999999999615e-01,3.000000000000000000e+01,1.157000000000000000e+03
1.000000000000000000e+00,8.711400000000000254e-01,3.000000000000000000e+01,1.159000000000000000e+03
1.000000000000000000e+00,6.760800000000000143e-01,3.000000000000000000e+01,1.161000000000000000e+03
1.000000000000000000e+00,8.816500000000000448e-01,1.910000000000000142e+01,1.166000000000000000e+03
1.000000000000000000e+00,9.521399999999999864e-01,2.428000000000000114e+01,1.170000000000000000e+03
1.000000000000000000e+00,9.066100000000000270e-01,2.300000000000000000e+01,1.172000000000000000e+03
1.000000000000000000e+00,9.490800000000000347e-01,3.000000000000000000e+01,1.174000000000000000e+03
1.000000000000000000e+00,7.837499999999999467e-01,3.000000000000000000e+01,1.179000000000000000e+03
1.000000000000000000e+00,9.707700000000000218e-01,3.000000000000000000e+01,1.181000000000000000e+03
1.000000000000000000e+00,8.918399999999999661e-01,3.000000000000000000e+01,1.184000000000000000e+03
1.000000000000000000e+00,9.048100000000000032e-01,2.789000000000000057e+01,1.185000000000000000e+03
1.000000000000000000e+00,9.029700000000000504e-01,3.000000000000000000e+01,1.189000000000000000e+03
1.000000000000000000e+00,8.992400000000000393e-01,3.000000000000000000e+01,1.190000000000000000e+03
1.000000000000000000e+00,9.679900000000000171e-01,6.000000000000000000e+01,1.194000000000000000e+03
1.000000000000000000e+00,9.812999999999999501e-01,3.000000000000000000e+01,1.195000000000000000e+03
1.000000000000000000e+00,6.155000000000000471e-01,6.000000000000000000e+01,1.199000000000000000e+03
1.000000000000000000e+00,8.477599999999999580e-01,3.000000000000000000e+01,1.200000000000000000e+03
1.000000000000000000e+00,9.697299999999999809e-01,3.000000000000000000e+01,1.202000000000000000e+03
1.000000000000000000e+00,8.199999999999999512e-01,3.000000000000000000e+01,1.204000000000000000e+03
1.000000000000000000e+00,9.384099999999999664e-01,3.192999999999999972e+01,1.205000000000000000e+03
1.000000000000000000e+00,8.263399999999999634e-01,3.000000000000000000e+01,1.206000000000000000e+03
1.000000000000000000e+00,6.126300000000000079e-01,3.000000000000000000e+01,1.207000000000000000e+03
1.000000000000000000e+00,8.110199999999999632e-01,3.000000000000000000e+01,1.208000000000000000e+03
1.000000000000000000e+00,6.015399999999999636e-01,3.000000000000000000e+01,1.211000000000000000e+03
1.000000000000000000e+00,6.643099999999999561e-01,3.000000000000000000e+01,1.212000000000000000e+03
1.000000000000000000e+00,9.488799999999999457e-01,3.000000000000000000e+01,1.214000000000000000e+03
1.000000000000000000e+00,8.409999999999999698e-01,3.000000000000000000e+01,1.221000000000000000e+03
1.000000000000000000e+00,9.172099999999999698e-01,3.000000000000000000e+01,1.222000000000000000e+03
1.000000000000000000e+00,8.612999999999999545e-01,3.000000000000000000e+01,1.223000000000000000e+03
1.000000000000000000e+00,9.635399999999999521e-01,3.000000000000000000e+01,1.225000000000000000e+03
1.000000000000000000e+00,9.593500000000000361e-01,3.000000000000000000e+01,1.227000000000000000e+03
1.000000000000000000e+00,9.362599999999999811e-01,1.821999999999999886e+01,1.228000000000000000e+03
1.000000000000000000e+00,9.833399999999999919e-01,3.000000000000000000e+01,1.232000000000000000e+03
1.000000000000000000e+00,7.378099999999999659e-01,3.000000000000000000e+01,1.234000000000000000e+03
1.000000000000000000e+00,9.502800000000000136e-01,3.000000000000000000e+01,1.238000000000000000e+03
1.000000000000000000e+00,8.708599999999999675e-01,3.000000000000000000e+01,1.239000000000000000e+03
1.000000000000000000e+00,5.628100000000000325e-01,3.000000000000000000e+01,1.242000000000000000e+03
1.000000000000000000e+00,9.650300000000000544e-01,3.000000000000000000e+01,1.247000000000000000e+03
1.000000000000000000e+00,3.841499999999999915e-01,2.198000000000000043e+01,1.248000000000000000e+03
1.000000000000000000e+00,7.133699999999999486e-01,3.000000000000000000e+01,1.249000000000000000e+03
1.000000000000000000e+00,8.953400000000000247e-01,6.000000000000000000e+01,1.254000000000000000e+03
1.000000000000000000e+00,9.693599999999999994e-01,3.000000000000000000e+01,1.255000000000000000e+03
1.000000000000000000e+00,4.116400000000000059e-01,3.000000000000000000e+01,1.259000000000000000e+03
1.000000000000000000e+00,9.404200000000000337e-01,6.086999999999999744e+01,1.261000000000000000e+03
1.000000000000000000e+00,8.850099999999999634e-01,3.000000000000000000e+01,1.262000000000000000e+03
1.000000000000000000e+00,9.619400000000000173e-01,3.000000000000000000e+01,1.264000000000000000e+03
1.000000000000000000e+00,8.709299999999999820e-01,3.000000000000000000e+01,1.265000000000000000e+03
1.000000000000000000e+00,5.942800000000000304e-01,3.000000000000000000e+01,1.266000000000000000e+03
1.000000000000000000e+00,5.858200000000000074e-01,3.000000000000000000e+01,1.269000000000000000e+03
1.000000000000000000e+00,9.526599999999999513e-01,3.000000000000000000e+01,1.271000000000000000e+03
1.000000000000000000e+00,6.903399999999999537e-01,3.000000000000000000e+01,1.273000000000000000e+03
1.000000000000000000e+00,6.728499999999999481e-01,3.000000000000000000e+01,1.276000000000000000e+03
1.000000000000000000e+00,8.531699999999999839e-01,3.000000000000000000e+01,1.278000000000000000e+03
1.000000000000000000e+00,7.880300000000000082e-01,3.000000000000000000e+01,1.283000000000000000e+03
1.000000000000000000e+00,4.723200000000000176e-01,3.000000000000000000e+01,1.284000000000000000e+03
1.000000000000000000e+00,5.271000000000000130e-01,3.000000000000000000e+01,1.285000000000000000e+03
1.000000000000000000e+00,6.413299999999999557e-01,3.000000000000000000e+01,1.289000000000000000e+03
1.000000000000000000e+00,8.049899999999999833e-01,3.000000000000000000e+01,1.293000000000000000e+03
1.000000000000000000e+00,8.622699999999999809e-01,3.000000000000000000e+01,1.296000000000000000e+03
1.000000000000000000e+00,9.343500000000000139e-01,3.000000000000000000e+01,1.297000000000000000e+03
1.000000000000000000e+00,7.438599999999999657e-01,3.000000000000000000e+01,1.301000000000000000e+03
1.000000000000000000e+00,8.329499999999999682e-01,3.000000000000000000e+01,1.305000000000000000e+03
1.000000000000000000e+00,6.606699999999999795e-01,6.000000000000000000e+01,1.307000000000000000e+03
1.000000000000000000e+00,9.663800000000000168e-01,3.000000000000000000e+01,1.311000000000000000e+03
1.000000000000000000e+00,9.365499999999999936e-01,6.000000000000000000e+01,1.314000000000000000e+03
1.000000000000000000e+00,8.770299999999999763e-01,3.000000000000000000e+01,1.315000000000000000e+03
1.000000000000000000e+00,6.343100000000000405e-01,3.000000000000000000e+01,1.320000000000000000e+03
1.000000000000000000e+00,7.122699999999999587e-01,3.000000000000000000e+01,1.321000000000000000e+03
1.000000000000000000e+00,8.415000000000000258e-01,2.442999999999999972e+01,1.328000000000000000e+03
1.000000000000000000e+00,9.458900000000000086e-01,3.000000000000000000e+01,1.331000000000000000e+03
1.000000000000000000e+00,9.377100000000000435e-01,3.000000000000000000e+01,1.336000000000000000e+03
1.000000000000000000e+00,9.121700000000000363e-01,3.000000000000000000e+01,1.339000000000000000e+03
1.000000000000000000e+00,8.921799999999999731e-01,6.010999999999999943e+01,1.341000000000000000e+03
1.000000000000000000e+00,5.824599999999999778e-01,6.000000000000000000e+01,1.346000000000000000e+03
1.000000000000000000e+00,8.306900000000000395e-01,3.000000000000000000e+01,1.347000000000000000e+03
1.000000000000000000e+00,8.816199999999999593e-01,3.000000000000000000e+01,1.348000000000000000e+03
1.000000000000000000e+00,9.642399999999999860e-01,3.000000000000000000e+01,1.349000000000000000e+03
1.000000000000000000e+00,5.473500000000000032e-01,3.000000000000000000e+01,1.351000000000000000e+03
1.000000000000000000e+00,9.385400000000000409e-01,3.000000000000000000e+01,1.353000000000000000e+03
1.000000000000000000e+00,9.501199999999999646e-01,2.900000000000000000e+01,1.358000000000000000e+03
1.000000000000000000e+00,9.408300000000000551e-01,3.000000000000000000e+01,1.360000000000000000e+03
1.000000000000000000e+00,7.047299999999999676e-01,3.000000000000000000e+01,1.361000000000000000e+03
1.000000000000000000e+00,9.250099999999999989e-01,3.000000000000000000e+01,1.362000000000000000e+03
1.000000000000000000e+00,4.600500000000000145e-01,3.000000000000000000e+01,1.367000000000000000e+03
1.000000000000000000e+00,9.733699999999999575e-01,4.975999999999999801e+01,1.368000000000000000e+03
1.000000000000000000e+00,9.400500000000000522e-01,3.000000000000000000e+01,1.369000000000000000e+03
1.000000000000000000e+00,3.992899999999999783e-01,3.000000000000000000e+01,1.372000000000000000e+03
1.000000000000000000e+00,9.388600000000000279e-01,3.000000000000000000e+01,1.374000000000000000e+03
1.000000000000000000e+00,6.775299999999999656e-01,3.000000000000000000e+01,1.377000000000000000e+03
1.000000000000000000e+00,9.071200000000000374e-01,3.000000000000000000e+01,1.378000000000000000e+03
1.000000000000000000e+00,9.654700000000000504e-01,3.000000000000000000e+01,1.380000000000000000e+03
1.000000000000000000e+00,8.265799999999999814e-01,6.000000000000000000e+01,1.384000000000000000e+03
1.000000000000000000e+00,7.429099999999999593e-01,3.000000000000000000e+01,1.385000000000000000e+03
1.000000000000000000e+00,8.795100000000000140e-01,3.000000000000000000e+01,1.387000000000000000e+03
1.000000000000000000e+00,9.398300000000000542e-01,3.000000000000000000e+01,1.390000000000000000e+03
1.000000000000000000e+00,7.843599999999999461e-01,3.000000000000000000e+01,1.391000000000000000e+03
1.000000000000000000e+00,5.650600000000000067e-01,3.000000000000000000e+01,1.392000000000000000e+03
1.000000000000000000e+00,8.185900000000000398e-01,3.000000000000000000e+01,1.397000000000000000e+03
1.000000000000000000e+00,6.850100000000000078e-01,3.000000000000000000e+01,1.398000000000000000e+03
1.000000000000000000e+00,9.776500000000000190e-01,3.000000000000000000e+01,1.399000000000000000e+03
1.000000000000000000e+00,7.989500000000000490e-01,3.000000000000000000e+01,1.401000000000000000e+03
1.000000000000000000e+00,7.796699999999999742e-01,3.000000000000000000e+01,1.403000000000000000e+03
1.000000000000000000e+00,8.581699999999999884e-01,3.000000000000000000e+01,1.409000000000000000e+03
1.000000000000000000e+00,9.691100000000000270e-01,3.000000000000000000e+01,1.411000000000000000e+03
1.000000000000000000e+00,9.848700000000000232e-01,3.000000000000000000e+01,1.415000000000000000e+03
1.000000000000000000e+00,9.282000000000000250e-01,3.000000000000000000e+01,1.416000000000000000e+03
1.000000000000000000e+00,9.473799999999999999e-01,3.000000000000000000e+01,1.417000000000000000e+03
1.000000000000000000e+00,7.773999999999999799e-01,3.000000000000000000e+01,1.421000000000000000e+03
1.000000000000000000e+00,8.987600000000000033e-01,6.000000000000000000e+01,1.422000000000000000e+03
1.000000000000000000e+00,8.574600000000000000e-01,3.000000000000000000e+01,1.425000000000000000e+03
1.000000000000000000e+00,9.771699999999999831e-01,3.000000000000000000e+01,1.426000000000000000e+03
1.000000000000000000e+00,9.490699999999999692e-01,3.000000000000000000e+01,1.428000000000000000e+03
1.000000000000000000e+00,9.758299999999999752e-01,3.481000000000000227e+01,1.430000000000000000e+03
1.000000000000000000e+00,8.428799999999999626e-01,3.000000000000000000e+01,1.432000000000000000e+03
1.000000000000000000e+00,9.467499999999999805e-01,3.000000000000000000e+01,1.434000000000000000e+03
1.000000000000000000e+00,5.269200000000000550e-01,3.000000000000000000e+01,1.435000000000000000e+03
1.000000000000000000e+00,5.441000000000000281e-01,3.000000000000000000e+01,1.439000000000000000e+03
1.000000000000000000e+00,8.389299999999999535e-01,3.000000000000000000e+01,1.440000000000000000e+03
1.000000000000000000e+00,5.467899999999999983e-01,5.081000000000000227e+01,1.441000000000000000e+03
1.000000000000000000e+00,8.800900000000000389e-01,3.000000000000000000e+01,1.442000000000000000e+03
1.000000000000000000e+00,6.767499999999999627e-01,1.363000000000000078e+01,1.444000000000000000e+03
1.000000000000000000e+00,5.441899999999999515e-01,3.000000000000000000e+01,1.445000000000000000e+03
1.000000000000000000e+00,9.276699999999999946e-01,6.000000000000000000e+01,1.447000000000000000e+03
1.000000000000000000e+00,7.921700000000000408e-01,3.000000000000000000e+01,1.451000000000000000e+03
1.000000000000000000e+00,9.578499999999999792e-01,3.000000000000000000e+01,1.455000000000000000e+03
1.000000000000000000e+00,9.337999999999999634e-01,3.000000000000000000e+01,1.456000000000000000e+03
1.000000000000000000e+00,8.560900000000000176e-01,6.000000000000000000e+01,1.457000000000000000e+03
1.000000000000000000e+00,8.820599999999999552e-01,3.000000000000000000e+01,1.462000000000000000e+03
1.000000000000000000e+00,8.849000000000000199e-01,3.000000000000000000e+01,1.463000000000000000e+03
1.000000000000000000e+00,9.203700000000000214e-01,3.000000000000000000e+01,1.464000000000000000e+03
1.000000000000000000e+00,9.216299999999999493e-01,3.000000000000000000e+01,1.465000000000000000e+03
1.000000000000000000e+00,9.108399999999999830e-01,3.000000000000000000e+01,1.472000000000000000e+03
1.000000000000000000e+00,7.924999999999999822e-01,3.000000000000000000e+01,1.479000000000000000e+03
1.000000000000000000e+00,7.744499999999999718e-01,3.518999999999999773e+01,1.480000000000000000e+03
1.000000000000000000e+00,6.932099999999999929e-01,3.000000000000000000e+01,1.482000000000000000e+03
1.000000000000000000e+00,9.445900000000000407e-01,5.975000000000000000e+01,1.483000000000000000e+03
1.000000000000000000e+00,9.584500000000000242e-01,3.000000000000000000e+01,1.486000000000000000e+03
1.000000000000000000e+00,4.786000000000000254e-01,3.000000000000000000e+01,1.488000000000000000e+03
1.000000000000000000e+00,5.039700000000000291e-01,3.000000000000000000e+01,1.489000000000000000e+03
1.000000000000000000e+00,9.369899999999999896e-01,3.000000000000000000e+01,1.490000000000000000e+03
1.000000000000000000e+00,9.194499999999999895e-01,2.967000000000000171e+01,1.492000000000000000e+03
1.000000000000000000e+00,7.942399999999999460e-01,2.626000000000000156e+01,1.493000000000000000e+03
1.000000000000000000e+00,6.998900000000000121e-01,3.000000000000000000e+01,1.495000000000000000e+03
1.000000000000000000e+00,9.047600000000000087e-01,3.000000000000000000e+01,1.496000000000000000e+03
1.000000000000000000e+00,9.767400000000000526e-01,3.000000000000000000e+01,1.497000000000000000e+03
1.000000000000000000e+00,6.572099999999999609e-01,3.000000000000000000e+01,1.499000000000000000e+03
1.000000000000000000e+00,8.479400000000000270e-01,3.000000000000000000e+01,1.504000000000000000e+03
1.000000000000000000e+00,8.844400000000000039e-01,3.098000000000000043e+01,1.506000000000000000e+03
1.000000000000000000e+00,9.457799999999999541e-01,3.000000000000000000e+01,1.507000000000000000e+03
1.000000000000000000e+00,4.604199999999999959e-01,3.000000000000000000e+01,1.508000000000000000e+03
1.000000000000000000e+00,5.980499999999999705e-01,3.000000000000000000e+01,1.512000000000000000e+03
1.000000000000000000e+00,7.330799999999999539e-01,1.435999999999999943e+01,1.513000000000000000e+03
1.000000000000000000e+00,9.041200000000000347e-01,3.000000000000000000e+01,1.514000000000000000e+03
1.000000000000000000e+00,9.685200000000000475e-01,3.000000000000000000e+01,1.523000000000000000e+03
1.000000000000000000e+00,7.074399999999999578e-01,3.000000000000000000e+01,1.524000000000000000e+03
1.000000000000000000e+00,7.812400000000000455e-01,6.000000000000000000e+01,1.528000000000000000e+03
1.000000000000000000e+00,6.169400000000000439e-01,3.000000000000000000e+01,1.533000000000000000e+03
1.000000000000000000e+00,5.303799999999999626e-01,2.242999999999999972e+01,1.534000000000000000e+03
1.000000000000000000e+00,5.373299999999999743e-01,3.000000000000000000e+01,1.535000000000000000e+03
1.000000000000000000e+00,5.294400000000000217e-01,3.000000000000000000e+01,1.537000000000000000e+03
1.000000000000000000e+00,8.100600000000000023e-01,3.000000000000000000e+01,1.538000000000000000e+03
1.000000000000000000e+00,9.421899999999999720e-01,4.685000000000000142e+01,1.539000000000000000e+03
1.000000000000000000e+00,9.647799999999999709e-01,3.000000000000000000e+01,1.541000000000000000e+03
1.000000000000000000e+00,9.699999999999999734e-01,6.000000000000000000e+01,1.542000000000000000e+03
1.000000000000000000e+00,7.646300000000000319e-01,3.000000000000000000e+01,1.545000000000000000e+03
1.000000000000000000e+00,8.694600000000000106e-01,3.000000000000000000e+01,1.548000000000000000e+03
1.000000000000000000e+00,5.918299999999999672e-01,3.000000000000000000e+01,1.549000000000000000e+03
1.000000000000000000e+00,8.145200000000000218e-01,3.000000000000000000e+01,1.551000000000000000e+03
1.000000000000000000e+00,8.185400000000000453e-01,3.000000000000000000e+01,1.555000000000000000e+03
1.000000000000000000e+00,6.439099999999999824e-01,3.000000000000000000e+01,1.556000000000000000e+03
1.000000000000000000e+00,5.324499999999999789e-01,3.000000000000000000e+01,1.558000000000000000e+03
1.000000000000000000e+00,9.414099999999999691e-01,3.000000000000000000e+01,1.559000000000000000e+03
1.000000000000000000e+00,9.578900000000000192e-01,3.000000000000000000e+01,1.560000000000000000e+03
1.000000000000000000e+00,7.571600000000000552e-01,2.712999999999999901e+01,1.566000000000000000e+03
1.000000000000000000e+00,8.297200000000000131e-01,3.000000000000000000e+01,1.570000000000000000e+03
1.000000000000000000e+00,5.629999999999999449e-01,1.098000000000000043e+01,1.572000000000000000e+03
1.000000000000000000e+00,8.804499999999999549e-01,3.000000000000000000e+01,1.573000000000000000e+03
1.000000000000000000e+00,7.378099999999999659e-01,3.000000000000000000e+01,1.574000000000000000e+03
1.000000000000000000e+00,9.446400000000000352e-01,3.000000000000000000e+01,1.579000000000000000e+03
1.000000000000000000e+00,9.719999999999999751e-01,3.000000000000000000e+01,1.582000000000000000e+03
1.000000000000000000e+00,9.107899999999999885e-01,3.000000000000000000e+01,1.595000000000000000e+03
1.000000000000000000e+00,7.396500000000000297e-01,3.000000000000000000e+01,1.596000000000000000e+03
1.000000000000000000e+00,9.302300000000000013e-01,3.000000000000000000e+01,1.599000000000000000e+03
1.000000000000000000e+00,9.364799999999999791e-01,3.000000000000000000e+01,1.600000000000000000e+03
1.000000000000000000e+00,9.760499999999999732e-01,3.692000000000000171e+01,1.601000000000000000e+03
1.000000000000000000e+00,9.212500000000000133e-01,3.000000000000000000e+01,1.604000000000000000e+03
1.000000000000000000e+00,8.410199999999999898e-01,3.000000000000000000e+01,1.605000000000000000e+03
1.000000000000000000e+00,9.443000000000000282e-01,3.000000000000000000e+01,1.610000000000000000e+03
1.000000000000000000e+00,9.556900000000000395e-01,3.000000000000000000e+01,1.611000000000000000e+03
1.000000000000000000e+00,9.566099999999999604e-01,3.000000000000000000e+01,1.612000000000000000e+03
1.000000000000000000e+00,7.538700000000000401e-01,3.000000000000000000e+01,1.613000000000000000e+03
1.000000000000000000e+00,8.448799999999999644e-01,5.096999999999999886e+01,1.615000000000000000e+03
1.000000000000000000e+00,7.378500000000000059e-01,3.000000000000000000e+01,1.616000000000000000e+03
1.000000000000000000e+00,6.131400000000000183e-01,4.278999999999999915e+01,1.617000000000000000e+03
1.000000000000000000e+00,7.985100000000000531e-01,3.000000000000000000e+01,1.623000000000000000e+03
1.000000000000000000e+00,9.489800000000000457e-01,3.000000000000000000e+01,1.625000000000000000e+03
1.000000000000000000e+00,6.351200000000000179e-01,3.000000000000000000e+01,1.626000000000000000e+03
1.000000000000000000e+00,8.952499999999999902e-01,3.000000000000000000e+01,1.630000000000000000e+03
1.000000000000000000e+00,8.542899999999999938e-01,3.000000000000000000e+01,1.631000000000000000e+03
1.000000000000000000e+00,9.418199999999999905e-01,3.000000000000000000e+01,1.637000000000000000e+03
1.000000000000000000e+00,9.621699999999999697e-01,3.000000000000000000e+01,1.638000000000000000e+03
1.000000000000000000e+00,5.103199999999999958e-01,3.000000000000000000e+01,1.640000000000000000e+03
1.000000000000000000e+00,9.126300000000000523e-01,3.000000000000000000e+01,1.644000000000000000e+03
1.000000000000000000e+00,6.483799999999999564e-01,3.000000000000000000e+01,1.645000000000000000e+03
1.000000000000000000e+00,7.858000000000000540e-01,3.000000000000000000e+01,1.646000000000000000e+03
1.000000000000000000e+00,9.324400000000000466e-01,3.000000000000000000e+01,1.655000000000000000e+03
1.000000000000000000e+00,6.915499999999999980e-01,2.810000000000000142e+01,1.656000000000000000e+03
1.000000000000000000e+00,6.327099999999999946e-01,3.000000000000000000e+01,1.657000000000000000e+03
1.000000000000000000e+00,6.878600000000000270e-01,3.000000000000000000e+01,1.658000000000000000e+03
1.000000000000000000e+00,8.193399999999999572e-01,3.000000000000000000e+01,1.660000000000000000e+03
1.000000000000000000e+00,5.491399999999999615e-01,3.000000000000000000e+01,1.663000000000000000e+03
1.000000000000000000e+00,9.191599999999999770e-01,3.000000000000000000e+01,1.664000000000000000e+03
1.000000000000000000e+00,9.739100000000000534e-01,3.000000000000000000e+01,1.666000000000000000e+03
1.000000000000000000e+00,9.681600000000000206e-01,3.000000000000000000e+01,1.670000000000000000e+03
1.000000000000000000e+00,9.256400000000000183e-01,3.000000000000000000e+01,1.671000000000000000e+03
1.000000000000000000e+00,9.244999999999999885e-01,2.546999999999999886e+01,1.673000000000000000e+03
1.000000000000000000e+00,6.188700000000000312e-01,3.000000000000000000e+01,1.674000000000000000e+03
1.000000000000000000e+00,7.428799999999999848e-01,3.000000000000000000e+01,1.675000000000000000e+03
1.000000000000000000e+00,8.488400000000000389e-01,6.000000000000000000e+01,1.677000000000000000e+03
1.000000000000000000e+00,8.997399999999999842e-01,3.000000000000000000e+01,1.678000000000000000e+03
1.000000000000000000e+00,9.639999999999999680e-01,3.000000000000000000e+01,1.680000000000000000e+03
1.000000000000000000e+00,7.337399999999999478e-01,3.000000000000000000e+01,1.683000000000000000e+03
1.000000000000000000e+00,8.102399999999999602e-01,3.000000000000000000e+01,1.684000000000000000e+03
1.000000000000000000e+00,7.327500000000000124e-01,6.000000000000000000e+01,1.686000000000000000e+03
1.000000000000000000e+00,9.880200000000000093e-01,3.000000000000000000e+01,1.687000000000000000e+03
1.000000000000000000e+00,8.043500000000000094e-01,2.271999999999999886e+01,1.688000000000000000e+03
1.000000000000000000e+00,7.557500000000000329e-01,3.000000000000000000e+01,1.689000000000000000e+03
1.000000000000000000e+00,9.491399999999999837e-01,3.000000000000000000e+01,1.696000000000000000e+03
1.000000000000000000e+00,8.358600000000000474e-01,3.000000000000000000e+01,1.697000000000000000e+03
1.000000000000000000e+00,9.784199999999999564e-01,3.000000000000000000e+01,1.698000000000000000e+03
1.000000000000000000e+00,9.513300000000000090e-01,3.000000000000000000e+01,1.699000000000000000e+03
1.000000000000000000e+00,9.673300000000000232e-01,6.000000000000000000e+01,1.702000000000000000e+03
1.000000000000000000e+00,9.710299999999999487e-01,3.000000000000000000e+01,1.704000000000000000e+03
1.000000000000000000e+00,7.503900000000000015e-01,3.000000000000000000e+01,1.705000000000000000e+03
1.000000000000000000e+00,9.802100000000000257e-01,3.000000000000000000e+01,1.708000000000000000e+03
1.000000000000000000e+00,5.330500000000000238e-01,2.542999999999999972e+01,1.713000000000000000e+03
1.000000000000000000e+00,7.997999999999999554e-01,3.000000000000000000e+01,1.717000000000000000e+03
1.000000000000000000e+00,9.665099999999999802e-01,3.000000000000000000e+01,1.719000000000000000e+03
1.000000000000000000e+00,9.559199999999999919e-01,3.000000000000000000e+01,1.721000000000000000e+03
1.000000000000000000e+00,8.083299999999999930e-01,3.000000000000000000e+01,1.724000000000000000e+03
1.000000000000000000e+00,9.218399999999999928e-01,3.000000000000000000e+01,1.725000000000000000e+03
1.000000000000000000e+00,7.406500000000000306e-01,3.000000000000000000e+01,1.728000000000000000e+03
1.000000000000000000e+00,6.603599999999999470e-01,3.000000000000000000e+01,1.729000000000000000e+03
1.000000000000000000e+00,9.820600000000000440e-01,3.000000000000000000e+01,1.730000000000000000e+03
1.000000000000000000e+00,5.466299999999999493e-01,3.000000000000000000e+01,1.732000000000000000e+03
1.000000000000000000e+00,9.598400000000000265e-01,3.000000000000000000e+01,1.733000000000000000e+03
1.000000000000000000e+00,9.863199999999999745e-01,1.407000000000000028e+01,1.735000000000000000e+03
1.000000000000000000e+00,9.412000000000000366e-01,3.000000000000000000e+01,1.736000000000000000e+03
1.000000000000000000e+00,9.541300000000000336e-01,3.000000000000000000e+01,1.738000000000000000e+03
1.000000000000000000e+00,9.485400000000000498e-01,3.000000000000000000e+01,1.739000000000000000e+03
1.000000000000000000e+00,9.592699999999999561e-01,6.000000000000000000e+01,1.740000000000000000e+03
1.000000000000000000e+00,8.773600000000000287e-01,3.000000000000000000e+01,1.741000000000000000e+03
1.000000000000000000e+00,5.980199999999999960e-01,3.000000000000000000e+01,1.742000000000000000e+03
1.000000000000000000e+00,7.893000000000000016e-01,3.271999999999999886e+01,1.743000000000000000e+03
1.000000000000000000e+00,5.116600000000000037e-01,3.000000000000000000e+01,1.749000000000000000e+03
1.000000000000000000e+00,8.039800000000000280e-01,1.391000000000000014e+01,1.751000000000000000e+03
1.000000000000000000e+00,9.644700000000000495e-01,3.000000000000000000e+01,1.752000000000000000e+03
1.000000000000000000e+00,8.717700000000000449e-01,3.000000000000000000e+01,1.754000000000000000e+03
1.000000000000000000e+00,9.826799999999999979e-01,3.000000000000000000e+01,1.756000000000000000e+03
1.000000000000000000e+00,9.392200000000000548e-01,6.000000000000000000e+01,1.758000000000000000e+03
1.000000000000000000e+00,9.086600000000000232e-01,3.000000000000000000e+01,1.759000000000000000e+03
1.000000000000000000e+00,8.852999999999999758e-01,3.000000000000000000e+01,1.760000000000000000e+03
1.000000000000000000e+00,8.860700000000000243e-01,3.000000000000000000e+01,1.762000000000000000e+03
1.000000000000000000e+00,8.352399999999999824e-01,3.000000000000000000e+01,1.767000000000000000e+03
1.000000000000000000e+00,8.351199999999999735e-01,6.000000000000000000e+01,1.768000000000000000e+03
1.000000000000000000e+00,7.423300000000000454e-01,3.000000000000000000e+01,1.769000000000000000e+03
1.000000000000000000e+00,9.110399999999999610e-01,6.000000000000000000e+01,1.771000000000000000e+03
1.000000000000000000e+00,8.873499999999999721e-01,3.000000000000000000e+01,1.773000000000000000e+03
1.000000000000000000e+00,9.611100000000000199e-01,3.000000000000000000e+01,1.775000000000000000e+03
1.000000000000000000e+00,3.807200000000000029e-01,3.000000000000000000e+01,1.778000000000000000e+03
1.000000000000000000e+00,5.910499999999999643e-01,3.000000000000000000e+01,1.779000000000000000e+03
1.000000000000000000e+00,7.358799999999999786e-01,1.341000000000000014e+01,1.781000000000000000e+03
1.000000000000000000e+00,6.928699999999999859e-01,3.000000000000000000e+01,1.782000000000000000e+03
1.000000000000000000e+00,7.818899999999999739e-01,3.504999999999999716e+01,1.783000000000000000e+03
1.000000000000000000e+00,9.065900000000000070e-01,3.000000000000000000e+01,1.788000000000000000e+03
1.000000000000000000e+00,8.705100000000000060e-01,3.000000000000000000e+01,1.789000000000000000e+03
1.000000000000000000e+00,7.035400000000000542e-01,3.000000000000000000e+01,1.791000000000000000e+03
1.000000000000000000e+00,7.004700000000000371e-01,3.000000000000000000e+01,1.792000000000000000e+03
1.000000000000000000e+00,5.618900000000000006e-01,3.000000000000000000e+01,1.793000000000000000e+03
1.000000000000000000e+00,8.839000000000000190e-01,1.896999999999999886e+01,1.794000000000000000e+03
1.000000000000000000e+00,9.603399999999999714e-01,2.098000000000000043e+01,1.796000000000000000e+03
1.000000000000000000e+00,8.471600000000000241e-01,3.000000000000000000e+01,1.797000000000000000e+03
1.000000000000000000e+00,6.462999999999999856e-01,3.000000000000000000e+01,1.799000000000000000e+03
1.000000000000000000e+00,9.843399999999999928e-01,3.000000000000000000e+01,1.802000000000000000e+03
1.000000000000000000e+00,7.959100000000000064e-01,3.000000000000000000e+01,1.803000000000000000e+03
1.000000000000000000e+00,6.336500000000000465e-01,3.000000000000000000e+01,1.806000000000000000e+03
1.000000000000000000e+00,9.716099999999999737e-01,3.000000000000000000e+01,1.807000000000000000e+03
1.000000000000000000e+00,9.280399999999999761e-01,3.000000000000000000e+01,1.810000000000000000e+03
1.000000000000000000e+00,9.707000000000000073e-01,3.000000000000000000e+01,1.816000000000000000e+03
1.000000000000000000e+00,9.222799999999999887e-01,3.000000000000000000e+01,1.817000000000000000e+03
1.000000000000000000e+00,9.112900000000000444e-01,6.000000000000000000e+01,1.819000000000000000e+03
1.000000000000000000e+00,5.987200000000000299e-01,3.000000000000000000e+01,1.821000000000000000e+03
1.000000000000000000e+00,7.612999999999999767e-01,2.764999999999999858e+01,1.823000000000000000e+03
1.000000000000000000e+00,9.437900000000000178e-01,6.000000000000000000e+01,1.827000000000000000e+03
1.000000000000000000e+00,5.023999999999999577e-01,3.000000000000000000e+01,1.832000000000000000e+03
1.000000000000000000e+00,6.189700000000000202e-01,3.000000000000000000e+01,1.835000000000000000e+03
1.000000000000000000e+00,7.755999999999999561e-01,6.000000000000000000e+01,1.837000000000000000e+03
1.000000000000000000e+00,8.517599999999999616e-01,3.000000000000000000e+01,1.840000000000000000e+03
1.000000000000000000e+00,8.533399999999999874e-01,3.000000000000000000e+01,1.843000000000000000e+03
1.000000000000000000e+00,5.659199999999999786e-01,3.000000000000000000e+01,1.845000000000000000e+03
1.000000000000000000e+00,9.697599999999999554e-01,3.000000000000000000e+01,1.847000000000000000e+03
1.000000000000000000e+00,8.160600000000000076e-01,3.000000000000000000e+01,1.848000000000000000e+03
1.000000000000000000e+00,7.180600000000000316e-01,2.103999999999999915e+01,1.849000000000000000e+03
1.000000000000000000e+00,4.391100000000000003e-01,3.000000000000000000e+01,1.850000000000000000e+03
1.000000000000000000e+00,7.999899999999999789e-01,3.000000000000000000e+01,1.851000000000000000e+03
1.000000000000000000e+00,7.054099999999999815e-01,6.000000000000000000e+01,1.854000000000000000e+03
1.000000000000000000e+00,7.433100000000000263e-01,3.000000000000000000e+01,1.856000000000000000e+03
1.000000000000000000e+00,9.313099999999999712e-01,3.000000000000000000e+01,1.857000000000000000e+03
1.000000000000000000e+00,9.515700000000000269e-01,3.000000000000000000e+01,1.859000000000000000e+03
1.000000000000000000e+00,9.144200000000000106e-01,3.000000000000000000e+01,1.861000000000000000e+03
1.000000000000000000e+00,8.092399999999999594e-01,3.000000000000000000e+01,1.862000000000000000e+03
1.000000000000000000e+00,6.763700000000000268e-01,3.000000000000000000e+01,1.863000000000000000e+03
1.000000000000000000e+00,9.361599999999999921e-01,3.000000000000000000e+01,1.864000000000000000e+03
1.000000000000000000e+00,6.343900000000000095e-01,3.000000000000000000e+01,1.865000000000000000e+03
1.000000000000000000e+00,9.662800000000000278e-01,3.000000000000000000e+01,1.866000000000000000e+03
1.000000000000000000e+00,9.366400000000000281e-01,3.000000000000000000e+01,1.867000000000000000e+03
1.000000000000000000e+00,5.789499999999999647e-01,3.000000000000000000e+01,1.868000000000000000e+03
1.000000000000000000e+00,6.928900000000000059e-01,2.714999999999999858e+01,1.870000000000000000e+03
1.000000000000000000e+00,9.519999999999999574e-01,3.000000000000000000e+01,1.871000000000000000e+03
1.000000000000000000e+00,4.893000000000000127e-01,3.000000000000000000e+01,1.874000000000000000e+03
1.000000000000000000e+00,7.711700000000000221e-01,3.000000000000000000e+01,1.877000000000000000e+03
1.000000000000000000e+00,6.411599999999999522e-01,2.298000000000000043e+01,1.879000000000000000e+03
1.000000000000000000e+00,8.034299999999999775e-01,3.000000000000000000e+01,1.881000000000000000e+03
1.000000000000000000e+00,7.172500000000000542e-01,3.000000000000000000e+01,1.884000000000000000e+03
1.000000000000000000e+00,6.224600000000000133e-01,3.000000000000000000e+01,1.885000000000000000e+03
1.000000000000000000e+00,9.903100000000000236e-01,3.000000000000000000e+01,1.889000000000000000e+03
1.000000000000000000e+00,6.973200000000000509e-01,3.000000000000000000e+01,1.894000000000000000e+03
1.000000000000000000e+00,9.234799999999999676e-01,3.000000000000000000e+01,1.895000000000000000e+03
1.000000000000000000e+00,6.730599999999999916e-01,1.239000000000000057e+01,1.896000000000000000e+03
1.000000000000000000e+00,9.180700000000000527e-01,3.000000000000000000e+01,1.898000000000000000e+03
1.000000000000000000e+00,9.718599999999999461e-01,3.000000000000000000e+01,1.899000000000000000e+03
1.000000000000000000e+00,9.151099999999999790e-01,3.000000000000000000e+01,1.900000000000000000e+03
1.000000000000000000e+00,5.042200000000000015e-01,3.000000000000000000e+01,1.901000000000000000e+03
1.000000000000000000e+00,7.287099999999999689e-01,6.000000000000000000e+01,1.904000000000000000e+03
1.000000000000000000e+00,9.497200000000000086e-01,3.000000000000000000e+01,1.906000000000000000e+03
1.000000000000000000e+00,9.383099999999999774e-01,3.000000000000000000e+01,1.908000000000000000e+03
1.000000000000000000e+00,7.267599999999999616e-01,6.000000000000000000e+01,1.910000000000000000e+03
1.000000000000000000e+00,5.942399999999999904e-01,3.000000000000000000e+01,1.911000000000000000e+03
1.000000000000000000e+00,5.979600000000000470e-01,3.000000000000000000e+01,1.912000000000000000e+03
1.000000000000000000e+00,9.509600000000000275e-01,3.000000000000000000e+01,1.914000000000000000e+03
1.000000000000000000e+00,9.700100000000000389e-01,3.000000000000000000e+01,1.915000000000000000e+03
1.000000000000000000e+00,5.968499999999999917e-01,3.000000000000000000e+01,1.920000000000000000e+03
1.000000000000000000e+00,9.779299999999999660e-01,3.000000000000000000e+01,1.922000000000000000e+03
1.000000000000000000e+00,9.721899999999999986e-01,3.000000000000000000e+01,1.923000000000000000e+03
1.000000000000000000e+00,5.335999999999999632e-01,2.507000000000000028e+01,1.926000000000000000e+03
1.000000000000000000e+00,9.155900000000000150e-01,3.000000000000000000e+01,1.927000000000000000e+03
1.000000000000000000e+00,7.504199999999999759e-01,6.054999999999999716e+01,1.931000000000000000e+03
1.000000000000000000e+00,9.121599999999999708e-01,3.000000000000000000e+01,1.933000000000000000e+03
1.000000000000000000e+00,6.398200000000000554e-01,3.000000000000000000e+01,1.935000000000000000e+03
1.000000000000000000e+00,5.985399999999999610e-01,3.000000000000000000e+01,1.936000000000000000e+03
1.000000000000000000e+00,9.074499999999999789e-01,3.000000000000000000e+01,1.939000000000000000e+03
1.000000000000000000e+00,8.701799999999999535e-01,3.000000000000000000e+01,1.940000000000000000e+03
1.000000000000000000e+00,8.444399999999999684e-01,3.000000000000000000e+01,1.945000000000000000e+03
1.000000000000000000e+00,9.165699999999999958e-01,1.375000000000000000e+01,1.947000000000000000e+03
1.000000000000000000e+00,8.939200000000000479e-01,3.000000000000000000e+01,1.948000000000000000e+03
1.000000000000000000e+00,9.453000000000000291e-01,3.000000000000000000e+01,1.949000000000000000e+03
1.000000000000000000e+00,9.596200000000000285e-01,6.000000000000000000e+01,1.950000000000000000e+03
1.000000000000000000e+00,9.826899999999999524e-01,3.000000000000000000e+01,1.956000000000000000e+03
1.000000000000000000e+00,6.241200000000000081e-01,6.000000000000000000e+01,1.958000000000000000e+03
1.000000000000000000e+00,9.718999999999999861e-01,3.000000000000000000e+01,1.959000000000000000e+03
1.000000000000000000e+00,9.517299999999999649e-01,3.000000000000000000e+01,1.960000000000000000e+03
1.000000000000000000e+00,9.750699999999999923e-01,3.000000000000000000e+01,1.963000000000000000e+03
1.000000000000000000e+00,8.841599999999999460e-01,1.450000000000000000e+01,1.964000000000000000e+03
1.000000000000000000e+00,9.760199999999999987e-01,3.000000000000000000e+01,1.967000000000000000e+03
1.000000000000000000e+00,8.927500000000000435e-01,3.000000000000000000e+01,1.971000000000000000e+03
1.000000000000000000e+00,9.712199999999999722e-01,3.000000000000000000e+01,1.973000000000000000e+03
1.000000000000000000e+00,9.047600000000000087e-01,6.000000000000000000e+01,1.975000000000000000e+03
1.000000000000000000e+00,8.928500000000000325e-01,3.000000000000000000e+01,1.976000000000000000e+03
1.000000000000000000e+00,8.522999999999999465e-01,3.000000000000000000e+01,1.977000000000000000e+03
1.000000000000000000e+00,9.351000000000000423e-01,3.000000000000000000e+01,1.978000000000000000e+03
1.000000000000000000e+00,9.551100000000000145e-01,3.000000000000000000e+01,1.979000000000000000e+03
1.000000000000000000e+00,8.438799999999999635e-01,3.000000000000000000e+01,1.980000000000000000e+03
1.000000000000000000e+00,9.331700000000000550e-01,6.000000000000000000e+01,1.982000000000000000e+03
1.000000000000000000e+00,9.443200000000000482e-01,3.000000000000000000e+01,1.984000000000000000e+03
1.000000000000000000e+00,7.980199999999999516e-01,3.000000000000000000e+01,1.987000000000000000e+03
1.000000000000000000e+00,8.264000000000000234e-01,3.000000000000000000e+01,1.988000000000000000e+03
1.000000000000000000e+00,8.590499999999999803e-01,3.000000000000000000e+01,1.989000000000000000e+03
1.000000000000000000e+00,9.270800000000000152e-01,3.000000000000000000e+01,1.993000000000000000e+03
1.000000000000000000e+00,7.560700000000000198e-01,3.000000000000000000e+01,1.995000000000000000e+03
1.000000000000000000e+00,9.388600000000000279e-01,3.000000000000000000e+01,1.996000000000000000e+03
1.000000000000000000e+00,8.565300000000000136e-01,3.000000000000000000e+01,1.998000000000000000e+03
1.000000000000000000e+00,9.346100000000000518e-01,3.000000000000000000e+01,2.000000000000000000e+03
1.000000000000000000e+00,4.983899999999999997e-01,3.000000000000000000e+01,2.006000000000000000e+03
1.000000000000000000e+00,6.849499999999999478e-01,3.000000000000000000e+01,2.008000000000000000e+03
1.000000000000000000e+00,7.263100000000000112e-01,3.000000000000000000e+01,2.009000000000000000e+03
1.000000000000000000e+00,8.687599999999999767e-01,2.660999999999999943e+01,2.010000000000000000e+03
1.000000000000000000e+00,9.444799999999999862e-01,3.000000000000000000e+01,2.013000000000000000e+03
1.000000000000000000e+00,9.074699999999999989e-01,3.000000000000000000e+01,2.015000000000000000e+03
1.000000000000000000e+00,5.365400000000000169e-01,3.000000000000000000e+01,2.016000000000000000e+03
1.000000000000000000e+00,9.763600000000000056e-01,3.000000000000000000e+01,2.018000000000000000e+03
1.000000000000000000e+00,9.235499999999999821e-01,3.000000000000000000e+01,2.020000000000000000e+03
1.000000000000000000e+00,7.928199999999999692e-01,6.000000000000000000e+01,2.021000000000000000e+03
1.000000000000000000e+00,9.252799999999999914e-01,3.000000000000000000e+01,2.022000000000000000e+03
1.000000000000000000e+00,8.164099999999999691e-01,2.094999999999999929e+01,2.026000000000000000e+03
1.000000000000000000e+00,8.791600000000000525e-01,3.000000000000000000e+01,2.028000000000000000e+03
1.000000000000000000e+00,8.627099999999999769e-01,3.000000000000000000e+01,2.029000000000000000e+03
1.000000000000000000e+00,8.485599999999999810e-01,3.000000000000000000e+01,2.034000000000000000e+03
1.000000000000000000e+00,9.458499999999999686e-01,3.000000000000000000e+01,2.037000000000000000e+03
1.000000000000000000e+00,9.506200000000000205e-01,3.000000000000000000e+01,2.038000000000000000e+03
1.000000000000000000e+00,6.957299999999999596e-01,3.000000000000000000e+01,2.039000000000000000e+03
1.000000000000000000e+00,9.629900000000000126e-01,3.000000000000000000e+01,2.040000000000000000e+03
1.000000000000000000e+00,9.529100000000000348e-01,3.000000000000000000e+01,2.046000000000000000e+03
1.000000000000000000e+00,9.675300000000000011e-01,3.000000000000000000e+01,2.048000000000000000e+03
1.000000000000000000e+00,9.297499999999999654e-01,3.000000000000000000e+01,2.050000000000000000e+03
1.000000000000000000e+00,8.881099999999999550e-01,3.000000000000000000e+01,2.052000000000000000e+03
1.000000000000000000e+00,8.524000000000000465e-01,3.000000000000000000e+01,2.054000000000000000e+03
1.000000000000000000e+00,9.539699999999999847e-01,3.000000000000000000e+01,2.058000000000000000e+03
1.000000000000000000e+00,6.350799999999999779e-01,3.000000000000000000e+01,2.061000000000000000e+03
1.000000000000000000e+00,9.338300000000000489e-01,3.000000000000000000e+01,2.063000000000000000e+03
1.000000000000000000e+00,7.440099999999999492e-01,3.000000000000000000e+01,2.064000000000000000e+03
1.000000000000000000e+00,9.345499999999999918e-01,6.000000000000000000e+01,2.071000000000000000e+03
1.000000000000000000e+00,9.168600000000000083e-01,3.155000000000000071e+01,2.073000000000000000e+03
1.000000000000000000e+00,8.289800000000000502e-01,3.000000000000000000e+01,2.076000000000000000e+03
1.000000000000000000e+00,9.818099999999999605e-01,3.000000000000000000e+01,2.079000000000000000e+03
1.000000000000000000e+00,7.811399999999999455e-01,3.000000000000000000e+01,2.082000000000000000e+03
1.000000000000000000e+00,4.821500000000000230e-01,3.000000000000000000e+01,2.083000000000000000e+03
1.000000000000000000e+00,7.256099999999999772e-01,3.000000000000000000e+01,2.085000000000000000e+03
1.000000000000000000e+00,9.621399999999999952e-01,3.000000000000000000e+01,2.086000000000000000e+03
1.000000000000000000e+00,9.287400000000000100e-01,3.000000000000000000e+01,2.087000000000000000e+03
1.000000000000000000e+00,9.528100000000000458e-01,6.039000000000000057e+01,2.089000000000000000e+03
1.000000000000000000e+00,5.885899999999999466e-01,3.000000000000000000e+01,2.093000000000000000e+03
1.000000000000000000e+00,9.357999999999999652e-01,3.000000000000000000e+01,2.094000000000000000e+03
1.000000000000000000e+00,7.569500000000000117e-01,3.000000000000000000e+01,2.097000000000000000e+03
1.000000000000000000e+00,9.013700000000000045e-01,3.000000000000000000e+01,2.099000000000000000e+03
1.000000000000000000e+00,7.546500000000000430e-01,1.266999999999999993e+01,2.100000000000000000e+03
1.000000000000000000e+00,5.728699999999999903e-01,3.000000000000000000e+01,2.106000000000000000e+03
1.000000000000000000e+00,8.564100000000000046e-01,3.000000000000000000e+01,2.115000000000000000e+03
1.000000000000000000e+00,7.264300000000000201e-01,3.000000000000000000e+01,2.123000000000000000e+03
1.000000000000000000e+00,9.677799999999999736e-01,6.000000000000000000e+01,2.124000000000000000e+03
1.000000000000000000e+00,7.352699999999999791e-01,3.000000000000000000e+01,2.125000000000000000e+03
1.000000000000000000e+00,9.455700000000000216e-01,3.000000000000000000e+01,2.127000000000000000e+03
1.000000000000000000e+00,4.962300000000000044e-01,3.000000000000000000e+01,2.128000000000000000e+03
1.000000000000000000e+00,9.276299999999999546e-01,3.000000000000000000e+01,2.130000000000000000e+03
1.000000000000000000e+00,9.816099999999999826e-01,3.000000000000000000e+01,2.131000000000000000e+03
1.000000000000000000e+00,6.402700000000000058e-01,2.526999999999999957e+01,2.134000000000000000e+03
1.000000000000000000e+00,8.621400000000000174e-01,3.000000000000000000e+01,2.135000000000000000e+03
1.000000000000000000e+00,9.459400000000000031e-01,6.000000000000000000e+01,2.136000000000000000e+03
1.000000000000000000e+00,8.848799999999999999e-01,3.000000000000000000e+01,2.139000000000000000e+03
1.000000000000000000e+00,8.256599999999999495e-01,1.912999999999999901e+01,2.140000000000000000e+03
1.000000000000000000e+00,9.417100000000000470e-01,3.000000000000000000e+01,2.141000000000000000e+03
1.000000000000000000e+00,8.562300000000000466e-01,6.000000000000000000e+01,2.142000000000000000e+03
1.000000000000000000e+00,3.660300000000000220e-01,3.000000000000000000e+01,2.143000000000000000e+03
1.000000000000000000e+00,9.870299999999999629e-01,3.000000000000000000e+01,2.144000000000000000e+03
1.000000000000000000e+00,7.373800000000000354e-01,3.000000000000000000e+01,2.145000000000000000e+03
1.000000000000000000e+00,8.001000000000000334e-01,3.000000000000000000e+01,2.146000000000000000e+03
1.000000000000000000e+00,7.626800000000000246e-01,3.000000000000000000e+01,2.147000000000000000e+03
1.000000000000000000e+00,9.760400000000000187e-01,3.000000000000000000e+01,2.148000000000000000e+03
1.000000000000000000e+00,6.559199999999999475e-01,3.000000000000000000e+01,2.149000000000000000e+03
1.000000000000000000e+00,7.205500000000000238e-01,3.000000000000000000e+01,2.151000000000000000e+03
1.000000000000000000e+00,8.742999999999999661e-01,3.000000000000000000e+01,2.154000000000000000e+03
1.000000000000000000e+00,9.427499999999999769e-01,3.000000000000000000e+01,2.155000000000000000e+03
1.000000000000000000e+00,9.383799999999999919e-01,3.000000000000000000e+01,2.156000000000000000e+03
1.000000000000000000e+00,8.303599999999999870e-01,3.000000000000000000e+01,2.160000000000000000e+03
1.000000000000000000e+00,9.350699999999999568e-01,3.000000000000000000e+01,2.161000000000000000e+03
1.000000000000000000e+00,8.436799999999999855e-01,3.000000000000000000e+01,2.162000000000000000e+03
1.000000000000000000e+00,5.195400000000000018e-01,3.000000000000000000e+01,2.166000000000000000e+03
1.000000000000000000e+00,3.800100000000000144e-01,1.507000000000000028e+01,2.167000000000000000e+03
1.000000000000000000e+00,5.507199999999999873e-01,3.000000000000000000e+01,2.169000000000000000e+03
1.000000000000000000e+00,9.589699999999999891e-01,3.000000000000000000e+01,2.172000000000000000e+03
1.000000000000000000e+00,7.899500000000000410e-01,3.000000000000000000e+01,2.173000000000000000e+03
1.000000000000000000e+00,6.125899999999999679e-01,4.004999999999999716e+01,2.174000000000000000e+03
1.000000000000000000e+00,9.673000000000000487e-01,3.000000000000000000e+01,2.175000000000000000e+03
1.000000000000000000e+00,8.878599999999999826e-01,3.000000000000000000e+01,2.178000000000000000e+03
1.000000000000000000e+00,7.676899999999999835e-01,2.782999999999999829e+01,2.182000000000000000e+03
1.000000000000000000e+00,9.011599999999999611e-01,3.000000000000000000e+01,2.184000000000000000e+03
1.000000000000000000e+00,4.804300000000000237e-01,3.000000000000000000e+01,2.185000000000000000e+03
1.000000000000000000e+00,8.881900000000000350e-01,3.000000000000000000e+01,2.189000000000000000e+03
1.000000000000000000e+00,4.185499999999999776e-01,3.000000000000000000e+01,2.191000000000000000e+03
1.000000000000000000e+00,6.643900000000000361e-01,3.000000000000000000e+01,2.195000000000000000e+03
1.000000000000000000e+00,9.812600000000000211e-01,3.000000000000000000e+01,2.198000000000000000e+03
1.000000000000000000e+00,7.682600000000000540e-01,3.000000000000000000e+01,2.203000000000000000e+03
1.000000000000000000e+00,9.464299999999999935e-01,3.000000000000000000e+01,2.204000000000000000e+03
1.000000000000000000e+00,6.720099999999999962e-01,3.000000000000000000e+01,2.206000000000000000e+03
1.000000000000000000e+00,7.097799999999999665e-01,3.000000000000000000e+01,2.208000000000000000e+03
1.000000000000000000e+00,7.058299999999999574e-01,3.000000000000000000e+01,2.209000000000000000e+03
1.000000000000000000e+00,9.543700000000000516e-01,3.000000000000000000e+01,2.215000000000000000e+03
1.000000000000000000e+00,6.457000000000000517e-01,3.000000000000000000e+01,2.216000000000000000e+03
1.000000000000000000e+00,6.691300000000000026e-01,3.000000000000000000e+01,2.219000000000000000e+03
1.000000000000000000e+00,9.772999999999999465e-01,3.000000000000000000e+01,2.220000000000000000e+03
1.000000000000000000e+00,8.842999999999999750e-01,3.000000000000000000e+01,2.221000000000000000e+03
1.000000000000000000e+00,8.409299999999999553e-01,3.000000000000000000e+01,2.225000000000000000e+03
1.000000000000000000e+00,8.295599999999999641e-01,2.551999999999999957e+01,2.227000000000000000e+03
1.000000000000000000e+00,6.887299999999999534e-01,3.000000000000000000e+01,2.230000000000000000e+03
1.000000000000000000e+00,9.298800000000000399e-01,3.000000000000000000e+01,2.234000000000000000e+03
1.000000000000000000e+00,5.406400000000000095e-01,3.000000000000000000e+01,2.237000000000000000e+03
1.000000000000000000e+00,6.070699999999999985e-01,6.000000000000000000e+01,2.239000000000000000e+03
1.000000000000000000e+00,9.202399999999999469e-01,3.000000000000000000e+01,2.240000000000000000e+03
1.000000000000000000e+00,9.168800000000000283e-01,3.000000000000000000e+01,2.241000000000000000e+03
1.000000000000000000e+00,4.778600000000000070e-01,2.898000000000000043e+01,2.243000000000000000e+03
1.000000000000000000e+00,9.283900000000000485e-01,3.000000000000000000e+01,2.244000000000000000e+03
1.000000000000000000e+00,9.332599999999999785e-01,3.000000000000000000e+01,2.246000000000000000e+03
1.000000000000000000e+00,7.885699999999999932e-01,1.142999999999999972e+01,2.249000000000000000e+03
1.000000000000000000e+00,8.854800000000000448e-01,3.000000000000000000e+01,2.250000000000000000e+03
1.000000000000000000e+00,5.022400000000000198e-01,3.000000000000000000e+01,2.251000000000000000e+03
1.000000000000000000e+00,7.244399999999999729e-01,3.000000000000000000e+01,2.256000000000000000e+03
1.000000000000000000e+00,4.993099999999999761e-01,3.000000000000000000e+01,2.258000000000000000e+03
1.000000000000000000e+00,5.430300000000000127e-01,3.000000000000000000e+01,2.260000000000000000e+03
1.000000000000000000e+00,8.693899999999999961e-01,3.000000000000000000e+01,2.261000000000000000e+03
1.000000000000000000e+00,9.173999999999999932e-01,3.000000000000000000e+01,2.264000000000000000e+03
1.000000000000000000e+00,9.296400000000000219e-01,3.000000000000000000e+01,2.266000000000000000e+03
1.000000000000000000e+00,9.467299999999999605e-01,3.000000000000000000e+01,2.267000000000000000e+03
1.000000000000000000e+00,9.174600000000000533e-01,3.000000000000000000e+01,2.269000000000000000e+03
1.000000000000000000e+00,9.189199999999999591e-01,3.000000000000000000e+01,2.271000000000000000e+03
1.000000000000000000e+00,8.879099999999999770e-01,3.000000000000000000e+01,2.274000000000000000e+03
1.000000000000000000e+00,6.342299999999999605e-01,3.000000000000000000e+01,2.275000000000000000e+03
1.000000000000000000e+00,8.660299999999999665e-01,3.000000000000000000e+01,2.276000000000000000e+03
1.000000000000000000e+00,9.167800000000000393e-01,3.000000000000000000e+01,2.277000000000000000e+03
1.000000000000000000e+00,5.168700000000000516e-01,3.000000000000000000e+01,2.282000000000000000e+03
1.000000000000000000e+00,9.196900000000000075e-01,3.000000000000000000e+01,2.283000000000000000e+03
1.000000000000000000e+00,8.363899999999999668e-01,3.000000000000000000e+01,2.285000000000000000e+03
1.000000000000000000e+00,9.743199999999999639e-01,3.000000000000000000e+01,2.287000000000000000e+03
1.000000000000000000e+00,6.229599999999999582e-01,3.000000000000000000e+01,2.293000000000000000e+03
1.000000000000000000e+00,9.809400000000000341e-01,3.000000000000000000e+01,2.297000000000000000e+03
1.000000000000000000e+00,9.235499999999999821e-01,3.000000000000000000e+01,2.298000000000000000e+03
1.000000000000000000e+00,7.852099999999999635e-01,3.000000000000000000e+01,2.305000000000000000e+03
1.000000000000000000e+00,7.476399999999999713e-01,3.000000000000000000e+01,2.308000000000000000e+03
1.000000000000000000e+00,4.087899999999999867e-01,3.000000000000000000e+01,2.309000000000000000e+03
1.000000000000000000e+00,5.603000000000000203e-01,3.000000000000000000e+01,2.313000000000000000e+03
1.000000000000000000e+00,9.792600000000000193e-01,3.000000000000000000e+01,2.317000000000000000e+03
1.000000000000000000e+00,9.651600000000000179e-01,3.000000000000000000e+01,2.319000000000000000e+03
1.000000000000000000e+00,8.545500000000000318e-01,3.000000000000000000e+01,2.327000000000000000e+03
1.000000000000000000e+00,3.961100000000000176e-01,3.000000000000000000e+01,2.329000000000000000e+03
1.000000000000000000e+00,8.128699999999999815e-01,3.000000000000000000e+01,2.331000000000000000e+03
1.000000000000000000e+00,6.031699999999999839e-01,3.000000000000000000e+01,2.332000000000000000e+03
1.000000000000000000e+00,8.007300000000000528e-01,3.000000000000000000e+01,2.335000000000000000e+03
1.000000000000000000e+00,8.560400000000000231e-01,3.000000000000000000e+01,2.336000000000000000e+03
1.000000000000000000e+00,9.044999999999999707e-01,3.000000000000000000e+01,2.338000000000000000e+03
1.000000000000000000e+00,9.734800000000000120e-01,3.000000000000000000e+01,2.339000000000000000e+03
1.000000000000000000e+00,9.693500000000000449e-01,3.000000000000000000e+01,2.340000000000000000e+03
1.000000000000000000e+00,9.679200000000000026e-01,3.000000000000000000e+01,2.341000000000000000e+03
1.000000000000000000e+00,9.508100000000000440e-01,3.000000000000000000e+01,2.343000000000000000e+03
1.000000000000000000e+00,7.694100000000000383e-01,3.000000000000000000e+01,2.344000000000000000e+03
1.000000000000000000e+00,7.824299999999999589e-01,3.000000000000000000e+01,2.346000000000000000e+03
1.000000000000000000e+00,8.477299999999999836e-01,3.000000000000000000e+01,2.350000000000000000e+03
1.000000000000000000e+00,9.539199999999999902e-01,3.000000000000000000e+01,2.351000000000000000e+03
1.000000000000000000e+00,9.733600000000000030e-01,3.000000000000000000e+01,2.352000000000000000e+03
1.000000000000000000e+00,7.973400000000000487e-01,3.000000000000000000e+01,2.354000000000000000e+03
1.000000000000000000e+00,8.533800000000000274e-01,6.000000000000000000e+01,2.356000000000000000e+03
1.000000000000000000e+00,9.616599999999999593e-01,3.000000000000000000e+01,2.357000000000000000e+03
1.000000000000000000e+00,5.985200000000000520e-01,3.000000000000000000e+01,2.359000000000000000e+03
1.000000000000000000e+00,5.703399999999999581e-01,3.000000000000000000e+01,2.360000000000000000e+03
1.000000000000000000e+00,9.604599999999999804e-01,3.000000000000000000e+01,2.362000000000000000e+03
1.000000000000000000e+00,7.104800000000000004e-01,2.455000000000000071e+01,2.365000000000000000e+03
1.000000000000000000e+00,7.933499999999999996e-01,3.000000000000000000e+01,2.367000000000000000e+03
1.000000000000000000e+00,8.476299999999999946e-01,3.000000000000000000e+01,2.368000000000000000e+03
1.000000000000000000e+00,9.788299999999999779e-01,3.000000000000000000e+01,2.371000000000000000e+03
1.000000000000000000e+00,9.335099999999999509e-01,2.587999999999999901e+01,2.374000000000000000e+03
1.000000000000000000e+00,9.750400000000000178e-01,3.000000000000000000e+01,2.376000000000000000e+03
1.000000000000000000e+00,8.842799999999999550e-01,3.000000000000000000e+01,2.377000000000000000e+03
1.000000000000000000e+00,9.663699999999999513e-01,3.000000000000000000e+01,2.381000000000000000e+03
1.000000000000000000e+00,7.027400000000000313e-01,6.000000000000000000e+01,2.382000000000000000e+03
1.000000000000000000e+00,9.609100000000000419e-01,6.000000000000000000e+01,2.383000000000000000e+03
1.000000000000000000e+00,7.009900000000000020e-01,3.000000000000000000e+01,2.384000000000000000e+03
1.000000000000000000e+00,4.957699999999999885e-01,3.000000000000000000e+01,2.385000000000000000e+03
1.000000000000000000e+00,9.006999999999999451e-01,3.000000000000000000e+01,2.389000000000000000e+03
1.000000000000000000e+00,9.488299999999999512e-01,3.000000000000000000e+01,2.393000000000000000e+03
1.000000000000000000e+00,6.546300000000000452e-01,3.000000000000000000e+01,2.395000000000000000e+03
1.000000000000000000e+00,8.626399999999999624e-01,3.000000000000000000e+01,2.398000000000000000e+03
1.000000000000000000e+00,4.818299999999999805e-01,3.000000000000000000e+01,2.405000000000000000e+03
1.000000000000000000e+00,8.579900000000000304e-01,3.000000000000000000e+01,2.406000000000000000e+03
1.000000000000000000e+00,8.287600000000000522e-01,3.000000000000000000e+01,2.407000000000000000e+03
1.000000000000000000e+00,9.246100000000000430e-01,3.000000000000000000e+01,2.412000000000000000e+03
1.000000000000000000e+00,8.899500000000000188e-01,4.042000000000000171e+01,2.413000000000000000e+03
1.000000000000000000e+00,5.116000000000000547e-01,3.000000000000000000e+01,2.414000000000000000e+03
1.000000000000000000e+00,8.861599999999999477e-01,3.000000000000000000e+01,2.415000000000000000e+03
1.000000000000000000e+00,8.256799999999999695e-01,6.000000000000000000e+01,2.416000000000000000e+03
1.000000000000000000e+00,7.546199999999999575e-01,3.000000000000000000e+01,2.417000000000000000e+03
1.000000000000000000e+00,8.038399999999999990e-01,3.000000000000000000e+01,2.420000000000000000e+03
1.000000000000000000e+00,9.484299999999999953e-01,6.000000000000000000e+01,2.422000000000000000e+03
1.000000000000000000e+00,8.566200000000000481e-01,3.000000000000000000e+01,2.424000000000000000e+03
1.000000000000000000e+00,7.598000000000000309e-01,3.000000000000000000e+01,2.427000000000000000e+03
1.000000000000000000e+00,8.608700000000000241e-01,6.000000000000000000e+01,2.430000000000000000e+03
1.000000000000000000e+00,9.067899999999999849e-01,3.000000000000000000e+01,2.443000000000000000e+03
1.000000000000000000e+00,9.182799999999999851e-01,3.000000000000000000e+01,2.444000000000000000e+03
1.000000000000000000e+00,9.243799999999999795e-01,3.000000000000000000e+01,2.445000000000000000e+03
1.000000000000000000e+00,7.937600000000000211e-01,3.000000000000000000e+01,2.447000000000000000e+03
1.000000000000000000e+00,9.593800000000000106e-01,3.000000000000000000e+01,2.449000000000000000e+03
1.000000000000000000e+00,8.145099999999999563e-01,3.000000000000000000e+01,2.450000000000000000e+03
1.000000000000000000e+00,9.644700000000000495e-01,3.000000000000000000e+01,2.452000000000000000e+03
1.000000000000000000e+00,9.421500000000000430e-01,3.000000000000000000e+01,2.454000000000000000e+03
1.000000000000000000e+00,9.596599999999999575e-01,3.000000000000000000e+01,2.458000000000000000e+03
1.000000000000000000e+00,7.704800000000000537e-01,3.000000000000000000e+01,2.459000000000000000e+03
1.000000000000000000e+00,8.750900000000000345e-01,3.000000000000000000e+01,2.465000000000000000e+03
1.000000000000000000e+00,6.816200000000000037e-01,2.228999999999999915e+01,2.468000000000000000e+03
1.000000000000000000e+00,5.237100000000000088e-01,3.000000000000000000e+01,2.469000000000000000e+03
1.000000000000000000e+00,9.448199999999999932e-01,3.000000000000000000e+01,2.470000000000000000e+03
1.000000000000000000e+00,6.846499999999999808e-01,3.000000000000000000e+01,2.472000000000000000e+03
1.000000000000000000e+00,7.239499999999999824e-01,2.414000000000000057e+01,2.473000000000000000e+03
1.000000000000000000e+00,8.861299999999999732e-01,3.000000000000000000e+01,2.476000000000000000e+03
1.000000000000000000e+00,9.681699999999999751e-01,3.000000000000000000e+01,2.480000000000000000e+03
1.000000000000000000e+00,9.238300000000000400e-01,6.000000000000000000e+01,2.481000000000000000e+03
1.000000000000000000e+00,3.785200000000000231e-01,3.000000000000000000e+01,2.485000000000000000e+03
1.000000000000000000e+00,9.415900000000000380e-01,3.000000000000000000e+01,2.486000000000000000e+03
1.000000000000000000e+00,6.070299999999999585e-01,6.000000000000000000e+01,2.487000000000000000e+03
1.000000000000000000e+00,8.848500000000000254e-01,3.200999999999999801e+01,2.492000000000000000e+03
1.000000000000000000e+00,5.567600000000000326e-01,6.000000000000000000e+01,2.495000000000000000e+03
1.000000000000000000e+00,9.066400000000000015e-01,3.000000000000000000e+01,2.496000000000000000e+03
1.000000000000000000e+00,9.652800000000000269e-01,3.000000000000000000e+01,2.497000000000000000e+03
1.000000000000000000e+00,5.311599999999999655e-01,3.000000000000000000e+01,2.500000000000000000e+03
1.000000000000000000e+00,9.265200000000000102e-01,3.000000000000000000e+01,2.503000000000000000e+03
1.000000000000000000e+00,9.127800000000000358e-01,3.928000000000000114e+01,2.504000000000000000e+03
1.000000000000000000e+00,9.775000000000000355e-01,3.000000000000000000e+01,2.507000000000000000e+03
1.000000000000000000e+00,7.601099999999999524e-01,3.000000000000000000e+01,2.508000000000000000e+03
1.000000000000000000e+00,8.912499999999999867e-01,6.000000000000000000e+01,2.510000000000000000e+03
1.000000000000000000e+00,9.196900000000000075e-01,3.000000000000000000e+01,2.511000000000000000e+03
1.000000000000000000e+00,9.669999999999999707e-01,3.000000000000000000e+01,2.515000000000000000e+03
1.000000000000000000e+00,8.195900000000000407e-01,6.000000000000000000e+01,2.516000000000000000e+03
1.000000000000000000e+00,9.444000000000000172e-01,3.000000000000000000e+01,2.517000000000000000e+03
1.000000000000000000e+00,4.860800000000000121e-01,3.000000000000000000e+01,2.520000000000000000e+03
1.000000000000000000e+00,8.367599999999999483e-01,2.369000000000000128e+01,2.521000000000000000e+03
1.000000000000000000e+00,8.116200000000000081e-01,3.000000000000000000e+01,2.523000000000000000e+03
1.000000000000000000e+00,6.984500000000000153e-01,3.000000000000000000e+01,2.524000000000000000e+03
1.000000000000000000e+00,4.702299999999999813e-01,3.000000000000000000e+01,2.525000000000000000e+03
1.000000000000000000e+00,9.746299999999999963e-01,3.000000000000000000e+01,2.526000000000000000e+03
1.000000000000000000e+00,8.528000000000000025e-01,3.000000000000000000e+01,2.527000000000000000e+03
1.000000000000000000e+00,9.128300000000000303e-01,3.000000000000000000e+01,2.528000000000000000e+03
1.000000000000000000e+00,6.780699999999999505e-01,3.000000000000000000e+01,2.530000000000000000e+03
1.000000000000000000e+00,9.599800000000000555e-01,3.000000000000000000e+01,2.534000000000000000e+03
1.000000000000000000e+00,6.958699999999999886e-01,3.000000000000000000e+01,2.537000000000000000e+03
1.000000000000000000e+00,9.497100000000000541e-01,3.000000000000000000e+01,2.539000000000000000e+03
1.000000000000000000e+00,8.294799999999999951e-01,3.000000000000000000e+01,2.540000000000000000e+03
1.000000000000000000e+00,8.077800000000000535e-01,3.000000000000000000e+01,2.542000000000000000e+03
1.000000000000000000e+00,6.977299999999999613e-01,3.000000000000000000e+01,2.543000000000000000e+03
1.000000000000000000e+00,7.823700000000000099e-01,3.000000000000000000e+01,2.545000000000000000e+03
1.000000000000000000e+00,8.517299999999999871e-01,3.000000000000000000e+01,2.546000000000000000e+03
1.000000000000000000e+00,9.386200000000000099e-01,3.000000000000000000e+01,2.548000000000000000e+03
1.000000000000000000e+00,9.157999999999999474e-01,3.000000000000000000e+01,2.553000000000000000e+03
1.000000000000000000e+00,9.284400000000000430e-01,3.000000000000000000e+01,2.554000000000000000e+03
1.000000000000000000e+00,6.133199999999999763e-01,3.000000000000000000e+01,2.555000000000000000e+03
1.000000000000000000e+00,9.136199999999999877e-01,3.000000000000000000e+01,2.556000000000000000e+03
1.000000000000000000e+00,8.703699999999999770e-01,3.000000000000000000e+01,2.558000000000000000e+03
1.000000000000000000e+00,8.008199999999999763e-01,3.000000000000000000e+01,2.561000000000000000e+03
1.000000000000000000e+00,8.905800000000000383e-01,3.000000000000000000e+01,2.562000000000000000e+03
1.000000000000000000e+00,9.501199999999999646e-01,3.000000000000000000e+01,2.564000000000000000e+03
1.000000000000000000e+00,9.313399999999999457e-01,3.000000000000000000e+01,2.566000000000000000e+03
1.000000000000000000e+00,9.080099999999999838e-01,3.000000000000000000e+01,2.567000000000000000e+03
1.000000000000000000e+00,7.979300000000000281e-01,3.000000000000000000e+01,2.571000000000000000e+03
1.000000000000000000e+00,6.512900000000000356e-01,3.000000000000000000e+01,2.573000000000000000e+03
1.000000000000000000e+00,8.575899999999999634e-01,3.000000000000000000e+01,2.578000000000000000e+03
1.000000000000000000e+00,9.770100000000000451e-01,6.000000000000000000e+01,2.579000000000000000e+03
1.000000000000000000e+00,8.846300000000000274e-01,3.000000000000000000e+01,2.581000000000000000e+03
1.000000000000000000e+00,9.009399999999999631e-01,3.000000000000000000e+01,2.582000000000000000e+03
1.000000000000000000e+00,9.543599999999999861e-01,3.000000000000000000e+01,2.583000000000000000e+03
1.000000000000000000e+00,8.499499999999999833e-01,3.000000000000000000e+01,2.585000000000000000e+03
1.000000000000000000e+00,8.090800000000000214e-01,3.000000000000000000e+01,2.586000000000000000e+03
1.000000000000000000e+00,9.364500000000000046e-01,3.000000000000000000e+01,2.588000000000000000e+03
1.000000000000000000e+00,9.519300000000000539e-01,3.000000000000000000e+01,2.589000000000000000e+03
1.000000000000000000e+00,8.757500000000000284e-01,3.000000000000000000e+01,2.591000000000000000e+03
1.000000000000000000e+00,8.136799999999999589e-01,3.000000000000000000e+01,2.592000000000000000e+03
1.000000000000000000e+00,6.622500000000000053e-01,3.000000000000000000e+01,2.593000000000000000e+03
1.000000000000000000e+00,8.532699999999999729e-01,3.000000000000000000e+01,2.595000000000000000e+03
1.000000000000000000e+00,9.192799999999999860e-01,3.000000000000000000e+01,2.596000000000000000e+03
1.000000000000000000e+00,5.516199999999999992e-01,2.607000000000000028e+01,2.597000000000000000e+03
1.000000000000000000e+00,9.392000000000000348e-01,3.000000000000000000e+01,2.598000000000000000e+03
1.000000000000000000e+00,6.210799999999999654e-01,3.000000000000000000e+01,2.599000000000000000e+03
1.000000000000000000e+00,9.609600000000000364e-01,3.000000000000000000e+01,2.600000000000000000e+03
1.000000000000000000e+00,9.467700000000000005e-01,3.000000000000000000e+01,2.604000000000000000e+03
1.000000000000000000e+00,4.358400000000000052e-01,3.000000000000000000e+01,2.605000000000000000e+03
1.000000000000000000e+00,8.209800000000000431e-01,3.000000000000000000e+01,2.606000000000000000e+03
1.000000000000000000e+00,8.837000000000000410e-01,6.000000000000000000e+01,2.608000000000000000e+03
1.000000000000000000e+00,9.191899999999999515e-01,3.000000000000000000e+01,2.609000000000000000e+03
1.000000000000000000e+00,7.885299999999999532e-01,3.000000000000000000e+01,2.610000000000000000e+03
1.000000000000000000e+00,5.836599999999999566e-01,3.000000000000000000e+01,2.612000000000000000e+03
1.000000000000000000e+00,7.842400000000000482e-01,3.000000000000000000e+01,2.616000000000000000e+03
1.000000000000000000e+00,9.405799999999999716e-01,3.000000000000000000e+01,2.618000000000000000e+03
1.000000000000000000e+00,7.004799999999999915e-01,3.000000000000000000e+01,2.619000000000000000e+03
1.000000000000000000e+00,9.785500000000000309e-01,3.000000000000000000e+01,2.620000000000000000e+03
1.000000000000000000e+00,9.335900000000000309e-01,3.000000000000000000e+01,2.621000000000000000e+03
1.000000000000000000e+00,7.833099999999999508e-01,3.000000000000000000e+01,2.622000000000000000e+03
1.000000000000000000e+00,7.161600000000000188e-01,3.000000000000000000e+01,2.623000000000000000e+03
1.000000000000000000e+00,9.437200000000000033e-01,3.000000000000000000e+01,2.627000000000000000e+03
1.000000000000000000e+00,7.720799999999999885e-01,3.000000000000000000e+01,2.628000000000000000e+03
1.000000000000000000e+00,9.643599999999999950e-01,3.000000000000000000e+01,2.633000000000000000e+03
1.000000000000000000e+00,9.505400000000000515e-01,3.000000000000000000e+01,2.635000000000000000e+03
1.000000000000000000e+00,9.423599999999999755e-01,3.000000000000000000e+01,2.637000000000000000e+03
1.000000000000000000e+00,6.906600000000000517e-01,3.000000000000000000e+01,2.638000000000000000e+03
1.000000000000000000e+00,9.293099999999999694e-01,3.000000000000000000e+01,2.640000000000000000e+03
1.000000000000000000e+00,8.584899999999999753e-01,3.000000000000000000e+01,2.641000000000000000e+03
