0.000000000000000000e+00,4.863999999999999990e-01,3.000000000000000000e+01,4.000000000000000000e+00
0.000000000000000000e+00,8.353199999999999514e-01,6.000000000000000000e+01,5.000000000000000000e+00
0.000000000000000000e+00,6.948499999999999677e-01,3.000000000000000000e+01,9.000000000000000000e+00
0.000000000000000000e+00,9.901900000000000146e-01,3.000000000000000000e+01,7.100000000000000000e+01
0.000000000000000000e+00,6.770599999999999952e-01,3.000000000000000000e+01,9.000000000000000000e+01
0.000000000000000000e+00,8.293800000000000061e-01,3.000000000000000000e+01,1.010000000000000000e+02
0.000000000000000000e+00,5.463400000000000478e-01,3.000000000000000000e+01,1.020000000000000000e+02
0.000000000000000000e+00,9.055600000000000316e-01,2.342999999999999972e+01,1.280000000000000000e+02
0.000000000000000000e+00,6.615699999999999914e-01,3.000000000000000000e+01,1.370000000000000000e+02
0.000000000000000000e+00,7.470900000000000318e-01,3.000000000000000000e+01,2.080000000000000000e+02
0.000000000000000000e+00,8.151800000000000157e-01,3.000000000000000000e+01,2.160000000000000000e+02
0.000000000000000000e+00,8.477000000000000091e-01,3.000000000000000000e+01,2.250000000000000000e+02
0.000000000000000000e+00,8.881400000000000405e-01,6.000000000000000000e+01,2.310000000000000000e+02
0.000000000000000000e+00,9.025499999999999634e-01,3.000000000000000000e+01,2.530000000000000000e+02
0.000000000000000000e+00,8.898000000000000353e-01,3.000000000000000000e+01,2.670000000000000000e+02
0.000000000000000000e+00,9.833699999999999664e-01,3.000000000000000000e+01,2.710000000000000000e+02
0.000000000000000000e+00,9.435999999999999943e-01,3.000000000000000000e+01,2.820000000000000000e+02
0.000000000000000000e+00,9.170399999999999663e-01,3.000000000000000000e+01,3.010000000000000000e+02
0.000000000000000000e+00,9.482300000000000173e-01,3.000000000000000000e+01,3.750000000000000000e+02
0.000000000000000000e+00,8.294399999999999551e-01,3.000000000000000000e+01,4.220000000000000000e+02
0.000000000000000000e+00,8.512999999999999456e-01,3.000000000000000000e+01,4.320000000000000000e+02
0.000000000000000000e+00,7.098799999999999555e-01,1.497000000000000064e+01,4.380000000000000000e+02
0.000000000000000000e+00,8.270699999999999719e-01,6.000000000000000000e+01,4.390000000000000000e+02
0.000000000000000000e+00,9.497900000000000231e-01,1.281000000000000050e+01,4.410000000000000000e+02
0.000000000000000000e+00,8.538999999999999924e-01,3.000000000000000000e+01,4.560000000000000000e+02
0.000000000000000000e+00,4.922900000000000054e-01,3.000000000000000000e+01,4.650000000000000000e+02
0.000000000000000000e+00,6.826900000000000190e-01,3.000000000000000000e+01,4.860000000000000000e+02
0.000000000000000000e+00,9.293099999999999694e-01,3.000000000000000000e+01,5.090000000000000000e+02
0.000000000000000000e+00,6.188599999999999657e-01,3.000000000000000000e+01,5.200000000000000000e+02
0.000000000000000000e+00,8.313000000000000389e-01,3.000000000000000000e+01,5.420000000000000000e+02
0.000000000000000000e+00,9.999000000000000110e-01,9.990000000000000213e+00,5.920000000000000000e+02
0.000000000000000000e+00,5.895700000000000385e-01,1.376999999999999957e+01,6.110000000000000000e+02
0.000000000000000000e+00,9.743800000000000239e-01,3.000000000000000000e+01,6.210000000000000000e+02
0.000000000000000000e+00,8.753900000000000015e-01,3.000000000000000000e+01,6.250000000000000000e+02
0.000000000000000000e+00,5.414900000000000269e-01,3.000000000000000000e+01,6.660000000000000000e+02
0.000000000000000000e+00,5.077099999999999946e-01,3.000000000000000000e+01,6.700000000000000000e+02
0.000000000000000000e+00,7.149999999999999689e-01,3.007000000000000028e+01,7.250000000000000000e+02
0.000000000000000000e+00,6.226699999999999458e-01,3.000000000000000000e+01,7.330000000000000000e+02
0.000000000000000000e+00,8.354300000000000059e-01,3.000000000000000000e+01,7.390000000000000000e+02
0.000000000000000000e+00,8.755199999999999649e-01,3.000000000000000000e+01,7.720000000000000000e+02
0.000000000000000000e+00,5.412299999999999889e-01,3.000000000000000000e+01,7.760000000000000000e+02
0.000000000000000000e+00,7.639399999999999524e-01,3.000000000000000000e+01,7.950000000000000000e+02
0.000000000000000000e+00,8.775899999999999812e-01,2.037999999999999901e+01,7.980000000000000000e+02
0.000000000000000000e+00,5.311200000000000365e-01,3.000000000000000000e+01,8.600000000000000000e+02
0.000000000000000000e+00,9.834000000000000519e-01,3.000000000000000000e+01,8.670000000000000000e+02
0.000000000000000000e+00,8.676000000000000378e-01,3.000000000000000000e+01,8.690000000000000000e+02
0.000000000000000000e+00,8.871400000000000396e-01,3.000000000000000000e+01,8.730000000000000000e+02
0.000000000000000000e+00,7.819800000000000084e-01,3.000000000000000000e+01,8.880000000000000000e+02
0.000000000000000000e+00,4.877400000000000069e-01,3.000000000000000000e+01,9.390000000000000000e+02
0.000000000000000000e+00,8.152700000000000502e-01,3.000000000000000000e+01,9.510000000000000000e+02
0.000000000000000000e+00,5.402099999999999680e-01,1.058999999999999986e+01,9.540000000000000000e+02
0.000000000000000000e+00,7.702499999999999902e-01,3.000000000000000000e+01,9.640000000000000000e+02
0.000000000000000000e+00,9.581600000000000117e-01,6.000000000000000000e+01,9.720000000000000000e+02
0.000000000000000000e+00,6.159000000000000030e-01,3.000000000000000000e+01,9.820000000000000000e+02
0.000000000000000000e+00,9.925100000000000033e-01,1.073000000000000043e+01,1.005000000000000000e+03
0.000000000000000000e+00,8.076400000000000245e-01,3.000000000000000000e+01,1.013000000000000000e+03
0.000000000000000000e+00,6.768800000000000372e-01,3.000000000000000000e+01,1.019000000000000000e+03
0.000000000000000000e+00,5.469699999999999562e-01,6.000000000000000000e+01,1.029000000000000000e+03
0.000000000000000000e+00,6.984500000000000153e-01,3.000000000000000000e+01,1.042000000000000000e+03
0.000000000000000000e+00,7.493800000000000461e-01,3.000000000000000000e+01,1.052000000000000000e+03
0.000000000000000000e+00,9.709499999999999797e-01,1.208000000000000007e+01,1.076000000000000000e+03
0.000000000000000000e+00,5.896700000000000275e-01,6.000000000000000000e+01,1.087000000000000000e+03
0.000000000000000000e+00,6.827900000000000080e-01,6.000000000000000000e+01,1.092000000000000000e+03
0.000000000000000000e+00,9.844199999999999617e-01,3.000000000000000000e+01,1.104000000000000000e+03
0.000000000000000000e+00,8.814400000000000013e-01,3.000000000000000000e+01,1.153000000000000000e+03
0.000000000000000000e+00,6.253699999999999815e-01,2.085999999999999943e+01,1.192000000000000000e+03
0.000000000000000000e+00,4.525199999999999778e-01,3.000000000000000000e+01,1.217000000000000000e+03
0.000000000000000000e+00,9.838599999999999568e-01,3.000000000000000000e+01,1.240000000000000000e+03
0.000000000000000000e+00,8.533300000000000329e-01,3.000000000000000000e+01,1.244000000000000000e+03
0.000000000000000000e+00,6.857499999999999707e-01,1.281000000000000050e+01,1.258000000000000000e+03
0.000000000000000000e+00,6.313999999999999613e-01,6.000000000000000000e+01,1.268000000000000000e+03
0.000000000000000000e+00,6.327700000000000546e-01,6.000000000000000000e+01,1.302000000000000000e+03
0.000000000000000000e+00,8.293899999999999606e-01,3.000000000000000000e+01,1.303000000000000000e+03
0.000000000000000000e+00,4.816500000000000226e-01,3.000000000000000000e+01,1.309000000000000000e+03
0.000000000000000000e+00,8.407799999999999718e-01,3.000000000000000000e+01,1.313000000000000000e+03
0.000000000000000000e+00,8.757599999999999829e-01,3.000000000000000000e+01,1.324000000000000000e+03
0.000000000000000000e+00,8.411899999999999933e-01,3.000000000000000000e+01,1.342000000000000000e+03
0.000000000000000000e+00,9.696000000000000174e-01,3.000000000000000000e+01,1.370000000000000000e+03
0.000000000000000000e+00,5.340599999999999792e-01,6.000000000000000000e+01,1.371000000000000000e+03
0.000000000000000000e+00,5.566600000000000437e-01,3.000000000000000000e+01,1.376000000000000000e+03
0.000000000000000000e+00,8.296000000000000041e-01,3.000000000000000000e+01,1.386000000000000000e+03
0.000000000000000000e+00,8.284000000000000252e-01,3.000000000000000000e+01,1.395000000000000000e+03
0.000000000000000000e+00,8.995900000000000007e-01,3.000000000000000000e+01,1.420000000000000000e+03
0.000000000000000000e+00,8.675199999999999578e-01,3.000000000000000000e+01,1.443000000000000000e+03
0.000000000000000000e+00,7.164000000000000368e-01,3.000000000000000000e+01,1.449000000000000000e+03
0.000000000000000000e+00,8.310600000000000209e-01,3.000000000000000000e+01,1.450000000000000000e+03
0.000000000000000000e+00,6.315399999999999903e-01,6.000000000000000000e+01,1.467000000000000000e+03
0.000000000000000000e+00,4.713399999999999812e-01,1.753000000000000114e+01,1.511000000000000000e+03
0.000000000000000000e+00,5.276600000000000179e-01,3.000000000000000000e+01,1.519000000000000000e+03
0.000000000000000000e+00,9.211899999999999533e-01,6.000000000000000000e+01,1.522000000000000000e+03
0.000000000000000000e+00,5.549399999999999888e-01,6.000000000000000000e+01,1.550000000000000000e+03
0.000000000000000000e+00,7.145000000000000240e-01,6.000000000000000000e+01,1.589000000000000000e+03
0.000000000000000000e+00,8.737000000000000322e-01,1.171000000000000085e+01,1.594000000000000000e+03
0.000000000000000000e+00,7.624300000000000521e-01,3.000000000000000000e+01,1.614000000000000000e+03
0.000000000000000000e+00,4.652399999999999869e-01,3.000000000000000000e+01,1.624000000000000000e+03
0.000000000000000000e+00,7.977100000000000302e-01,3.000000000000000000e+01,1.642000000000000000e+03
0.000000000000000000e+00,6.777699999999999836e-01,3.000000000000000000e+01,1.662000000000000000e+03
0.000000000000000000e+00,8.417900000000000382e-01,3.000000000000000000e+01,1.691000000000000000e+03
0.000000000000000000e+00,9.478299999999999503e-01,3.000000000000000000e+01,1.693000000000000000e+03
0.000000000000000000e+00,5.033199999999999896e-01,3.000000000000000000e+01,1.718000000000000000e+03
0.000000000000000000e+00,8.501699999999999813e-01,3.000000000000000000e+01,1.747000000000000000e+03
0.000000000000000000e+00,9.766500000000000181e-01,3.000000000000000000e+01,1.753000000000000000e+03
0.000000000000000000e+00,9.289399999999999880e-01,3.000000000000000000e+01,1.776000000000000000e+03
0.000000000000000000e+00,9.656099999999999683e-01,1.131000000000000050e+01,1.786000000000000000e+03
0.000000000000000000e+00,8.592899999999999983e-01,3.000000000000000000e+01,1.811000000000000000e+03
0.000000000000000000e+00,9.795599999999999863e-01,3.000000000000000000e+01,1.824000000000000000e+03
0.000000000000000000e+00,5.430800000000000072e-01,3.000000000000000000e+01,1.828000000000000000e+03
0.000000000000000000e+00,8.050000000000000488e-01,3.000000000000000000e+01,1.831000000000000000e+03
0.000000000000000000e+00,6.084699999999999553e-01,3.000000000000000000e+01,1.844000000000000000e+03
0.000000000000000000e+00,7.130600000000000271e-01,3.000000000000000000e+01,1.853000000000000000e+03
0.000000000000000000e+00,5.933599999999999985e-01,3.000000000000000000e+01,1.869000000000000000e+03
0.000000000000000000e+00,8.739500000000000046e-01,3.000000000000000000e+01,1.930000000000000000e+03
0.000000000000000000e+00,5.777099999999999458e-01,1.088000000000000078e+01,1.932000000000000000e+03
0.000000000000000000e+00,6.420500000000000096e-01,3.000000000000000000e+01,1.941000000000000000e+03
0.000000000000000000e+00,8.573699999999999655e-01,1.294999999999999929e+01,1.951000000000000000e+03
0.000000000000000000e+00,5.476600000000000357e-01,3.000000000000000000e+01,1.981000000000000000e+03
0.000000000000000000e+00,7.088900000000000201e-01,3.148000000000000043e+01,1.986000000000000000e+03
0.000000000000000000e+00,7.795800000000000507e-01,3.000000000000000000e+01,2.047000000000000000e+03
0.000000000000000000e+00,6.573400000000000354e-01,3.663000000000000256e+01,2.081000000000000000e+03
0.000000000000000000e+00,6.177700000000000413e-01,6.000000000000000000e+01,2.102000000000000000e+03
0.000000000000000000e+00,4.294999999999999929e-01,3.000000000000000000e+01,2.104000000000000000e+03
0.000000000000000000e+00,6.300099999999999589e-01,1.444999999999999929e+01,2.110000000000000000e+03
0.000000000000000000e+00,9.952499999999999680e-01,1.066000000000000014e+01,2.126000000000000000e+03
0.000000000000000000e+00,7.687699999999999534e-01,3.000000000000000000e+01,2.150000000000000000e+03
0.000000000000000000e+00,7.425500000000000433e-01,1.273000000000000043e+01,2.159000000000000000e+03
0.000000000000000000e+00,4.214999999999999858e-01,2.132000000000000028e+01,2.197000000000000000e+03
0.000000000000000000e+00,8.199999999999999512e-01,3.000000000000000000e+01,2.224000000000000000e+03
0.000000000000000000e+00,8.094599999999999573e-01,3.000000000000000000e+01,2.279000000000000000e+03
0.000000000000000000e+00,8.869200000000000417e-01,3.000000000000000000e+01,2.290000000000000000e+03
0.000000000000000000e+00,5.969999999999999751e-01,3.000000000000000000e+01,2.291000000000000000e+03
0.000000000000000000e+00,8.713300000000000489e-01,3.000000000000000000e+01,2.326000000000000000e+03
0.000000000000000000e+00,5.745599999999999596e-01,3.000000000000000000e+01,2.330000000000000000e+03
0.000000000000000000e+00,6.016200000000000436e-01,3.000000000000000000e+01,2.375000000000000000e+03
0.000000000000000000e+00,9.522300000000000209e-01,2.196999999999999886e+01,2.391000000000000000e+03
0.000000000000000000e+00,7.360799999999999566e-01,3.000000000000000000e+01,2.400000000000000000e+03
0.000000000000000000e+00,7.588500000000000245e-01,3.000000000000000000e+01,2.402000000000000000e+03
0.000000000000000000e+00,9.000700000000000367e-01,6.000000000000000000e+01,2.425000000000000000e+03
0.000000000000000000e+00,9.292399999999999549e-01,1.100000000000000000e+01,2.426000000000000000e+03
0.000000000000000000e+00,8.708099999999999730e-01,1.787999999999999901e+01,2.429000000000000000e+03
0.000000000000000000e+00,5.525600000000000511e-01,3.000000000000000000e+01,2.451000000000000000e+03
0.000000000000000000e+00,6.810699999999999532e-01,6.000000000000000000e+01,2.455000000000000000e+03
0.000000000000000000e+00,7.689399999999999569e-01,3.028999999999999915e+01,2.460000000000000000e+03
0.000000000000000000e+00,6.262900000000000134e-01,6.000000000000000000e+01,2.461000000000000000e+03
0.000000000000000000e+00,5.388899999999999801e-01,3.000000000000000000e+01,2.474000000000000000e+03
0.000000000000000000e+00,8.843400000000000150e-01,3.000000000000000000e+01,2.475000000000000000e+03
0.000000000000000000e+00,8.397700000000000164e-01,3.000000000000000000e+01,2.493000000000000000e+03
0.000000000000000000e+00,9.552899999999999725e-01,3.000000000000000000e+01,2.499000000000000000e+03
0.000000000000000000e+00,6.915099999999999580e-01,6.000000000000000000e+01,2.506000000000000000e+03
0.000000000000000000e+00,5.772000000000000464e-01,3.000000000000000000e+01,2.509000000000000000e+03
0.000000000000000000e+00,8.682600000000000318e-01,3.000000000000000000e+01,2.519000000000000000e+03
0.000000000000000000e+00,8.882400000000000295e-01,3.000000000000000000e+01,2.536000000000000000e+03
0.000000000000000000e+00,9.561600000000000099e-01,3.000000000000000000e+01,2.549000000000000000e+03
0.000000000000000000e+00,9.649199999999999999e-01,2.392999999999999972e+01,2.550000000000000000e+03
0.000000000000000000e+00,5.348699999999999566e-01,3.000000000000000000e+01,2.559000000000000000e+03
0.000000000000000000e+00,8.527799999999999825e-01,3.000000000000000000e+01,2.611000000000000000e+03
0.000000000000000000e+00,6.934700000000000308e-01,1.086999999999999922e+01,2.626000000000000000e+03
0.000000000000000000e+00,6.640599999999999836e-01,3.000000000000000000e+01,2.649000000000000000e+03
0.000000000000000000e+00,6.385199999999999765e-01,3.000000000000000000e+01,2.686000000000000000e+03
0.000000000000000000e+00,5.362200000000000299e-01,3.000000000000000000e+01,2.695000000000000000e+03
0.000000000000000000e+00,7.760000000000000231e-01,3.000000000000000000e+01,2.722000000000000000e+03
0.000000000000000000e+00,8.835899999999999865e-01,3.000000000000000000e+01,2.727000000000000000e+03
0.000000000000000000e+00,9.459600000000000231e-01,6.000000000000000000e+01,2.738000000000000000e+03
0.000000000000000000e+00,5.227699999999999569e-01,6.000000000000000000e+01,2.757000000000000000e+03
0.000000000000000000e+00,5.262000000000000011e-01,6.000000000000000000e+01,2.776000000000000000e+03
0.000000000000000000e+00,4.736299999999999955e-01,3.000000000000000000e+01,2.807000000000000000e+03
0.000000000000000000e+00,9.828500000000000014e-01,3.000000000000000000e+01,2.845000000000000000e+03
0.000000000000000000e+00,7.095500000000000140e-01,3.000000000000000000e+01,2.853000000000000000e+03
0.000000000000000000e+00,6.449700000000000433e-01,1.901000000000000156e+01,2.856000000000000000e+03
0.000000000000000000e+00,9.025900000000000034e-01,3.000000000000000000e+01,2.879000000000000000e+03
0.000000000000000000e+00,9.931400000000000228e-01,3.000000000000000000e+01,2.895000000000000000e+03
0.000000000000000000e+00,6.235699999999999577e-01,3.000000000000000000e+01,2.918000000000000000e+03
0.000000000000000000e+00,4.279700000000000171e-01,3.000000000000000000e+01,2.937000000000000000e+03
0.000000000000000000e+00,8.882799999999999585e-01,6.000000000000000000e+01,3.004000000000000000e+03
0.000000000000000000e+00,7.924200000000000133e-01,3.000000000000000000e+01,3.012000000000000000e+03
0.000000000000000000e+00,7.903200000000000225e-01,3.000000000000000000e+01,3.055000000000000000e+03
0.000000000000000000e+00,7.040300000000000447e-01,6.000000000000000000e+01,3.101000000000000000e+03
0.000000000000000000e+00,8.229300000000000503e-01,3.000000000000000000e+01,3.126000000000000000e+03
0.000000000000000000e+00,5.020999999999999908e-01,4.092999999999999972e+01,3.154000000000000000e+03
0.000000000000000000e+00,8.217999999999999750e-01,3.000000000000000000e+01,3.161000000000000000e+03
0.000000000000000000e+00,8.836399999999999810e-01,3.000000000000000000e+01,3.185000000000000000e+03
0.000000000000000000e+00,9.055499999999999661e-01,6.000000000000000000e+01,3.187000000000000000e+03
0.000000000000000000e+00,7.434899999999999842e-01,3.000000000000000000e+01,3.212000000000000000e+03
0.000000000000000000e+00,6.536499999999999533e-01,3.000000000000000000e+01,3.223000000000000000e+03
0.000000000000000000e+00,8.174900000000000500e-01,3.000000000000000000e+01,3.246000000000000000e+03
0.000000000000000000e+00,8.253800000000000026e-01,6.000000000000000000e+01,3.295000000000000000e+03
0.000000000000000000e+00,6.380700000000000260e-01,3.000000000000000000e+01,3.306000000000000000e+03
0.000000000000000000e+00,9.213200000000000278e-01,3.000000000000000000e+01,3.310000000000000000e+03
0.000000000000000000e+00,7.478000000000000203e-01,3.000000000000000000e+01,3.319000000000000000e+03
0.000000000000000000e+00,9.020799999999999930e-01,6.000000000000000000e+01,3.382000000000000000e+03
0.000000000000000000e+00,7.768100000000000005e-01,1.441000000000000014e+01,3.437000000000000000e+03
0.000000000000000000e+00,9.626500000000000057e-01,3.000000000000000000e+01,3.446000000000000000e+03
0.000000000000000000e+00,9.235200000000000076e-01,1.267999999999999972e+01,3.469000000000000000e+03
0.000000000000000000e+00,9.969799999999999773e-01,1.006000000000000050e+01,3.498000000000000000e+03
0.000000000000000000e+00,8.728299999999999947e-01,3.000000000000000000e+01,3.501000000000000000e+03
0.000000000000000000e+00,8.187999999999999723e-01,3.000000000000000000e+01,3.502000000000000000e+03
0.000000000000000000e+00,6.644600000000000506e-01,3.000000000000000000e+01,3.508000000000000000e+03
0.000000000000000000e+00,9.659699999999999953e-01,3.000000000000000000e+01,3.548000000000000000e+03
0.000000000000000000e+00,9.376700000000000035e-01,3.000000000000000000e+01,3.569000000000000000e+03
0.000000000000000000e+00,6.639100000000000001e-01,3.000000000000000000e+01,3.576000000000000000e+03
0.000000000000000000e+00,7.421499999999999764e-01,2.003999999999999915e+01,3.584000000000000000e+03
0.000000000000000000e+00,6.545800000000000507e-01,3.000000000000000000e+01,3.592000000000000000e+03
0.000000000000000000e+00,8.811700000000000088e-01,3.000000000000000000e+01,3.605000000000000000e+03
0.000000000000000000e+00,8.251500000000000501e-01,2.312999999999999901e+01,3.629000000000000000e+03
0.000000000000000000e+00,5.860300000000000509e-01,3.000000000000000000e+01,3.634000000000000000e+03
0.000000000000000000e+00,7.271499999999999631e-01,6.000000000000000000e+01,3.635000000000000000e+03
0.000000000000000000e+00,7.509700000000000264e-01,6.000000000000000000e+01,3.657000000000000000e+03
0.000000000000000000e+00,8.912600000000000522e-01,3.000000000000000000e+01,3.660000000000000000e+03
0.000000000000000000e+00,9.639199999999999990e-01,3.000000000000000000e+01,3.670000000000000000e+03
0.000000000000000000e+00,8.114999999999999991e-01,3.000000000000000000e+01,3.671000000000000000e+03
0.000000000000000000e+00,9.852600000000000247e-01,1.165000000000000036e+01,3.707000000000000000e+03
0.000000000000000000e+00,6.467500000000000471e-01,3.000000000000000000e+01,3.760000000000000000e+03
0.000000000000000000e+00,5.207699999999999552e-01,3.000000000000000000e+01,3.792000000000000000e+03
0.000000000000000000e+00,9.173200000000000243e-01,3.000000000000000000e+01,3.827000000000000000e+03
0.000000000000000000e+00,6.186000000000000387e-01,3.000000000000000000e+01,3.836000000000000000e+03
0.000000000000000000e+00,5.786299999999999777e-01,3.000000000000000000e+01,3.844000000000000000e+03
0.000000000000000000e+00,5.672300000000000120e-01,3.000000000000000000e+01,3.852000000000000000e+03
0.000000000000000000e+00,8.261800000000000255e-01,2.030999999999999872e+01,3.863000000000000000e+03
0.000000000000000000e+00,7.862000000000000099e-01,3.000000000000000000e+01,3.905000000000000000e+03
0.000000000000000000e+00,9.188499999999999446e-01,3.000000000000000000e+01,3.954000000000000000e+03
0.000000000000000000e+00,9.419100000000000250e-01,1.787000000000000099e+01,3.983000000000000000e+03
0.000000000000000000e+00,9.460800000000000320e-01,6.000000000000000000e+01,4.019000000000000000e+03
0.000000000000000000e+00,5.874200000000000532e-01,3.000000000000000000e+01,4.030000000000000000e+03
0.000000000000000000e+00,6.939699999999999758e-01,3.000000000000000000e+01,4.048000000000000000e+03
0.000000000000000000e+00,9.251700000000000479e-01,3.000000000000000000e+01,4.117000000000000000e+03
0.000000000000000000e+00,8.911400000000000432e-01,4.025999999999999801e+01,4.122000000000000000e+03
0.000000000000000000e+00,4.938000000000000167e-01,3.000000000000000000e+01,4.123000000000000000e+03
0.000000000000000000e+00,7.931799999999999962e-01,3.000000000000000000e+01,4.128000000000000000e+03
0.000000000000000000e+00,5.974000000000000421e-01,3.000000000000000000e+01,4.207000000000000000e+03
0.000000000000000000e+00,9.524799999999999933e-01,3.000000000000000000e+01,4.218000000000000000e+03
0.000000000000000000e+00,7.601499999999999924e-01,1.998999999999999844e+01,4.220000000000000000e+03
0.000000000000000000e+00,5.417800000000000393e-01,3.000000000000000000e+01,4.230000000000000000e+03
0.000000000000000000e+00,8.411100000000000243e-01,3.000000000000000000e+01,4.272000000000000000e+03
0.000000000000000000e+00,8.357099999999999529e-01,3.000000000000000000e+01,4.299000000000000000e+03
0.000000000000000000e+00,7.550799999999999734e-01,3.000000000000000000e+01,4.320000000000000000e+03
0.000000000000000000e+00,7.332199999999999829e-01,3.000000000000000000e+01,4.349000000000000000e+03
0.000000000000000000e+00,7.575100000000000167e-01,6.000000000000000000e+01,4.383000000000000000e+03
0.000000000000000000e+00,8.895999999999999464e-01,3.000000000000000000e+01,4.431000000000000000e+03
0.000000000000000000e+00,7.279400000000000315e-01,3.000000000000000000e+01,4.454000000000000000e+03
0.000000000000000000e+00,8.415899999999999492e-01,2.008999999999999986e+01,4.508000000000000000e+03
0.000000000000000000e+00,3.448999999999999844e-01,3.000000000000000000e+01,4.587000000000000000e+03
0.000000000000000000e+00,6.210900000000000309e-01,3.000000000000000000e+01,4.594000000000000000e+03
0.000000000000000000e+00,7.989000000000000545e-01,3.000000000000000000e+01,4.596000000000000000e+03
0.000000000000000000e+00,9.197199999999999820e-01,3.000000000000000000e+01,4.658000000000000000e+03
0.000000000000000000e+00,8.601900000000000102e-01,3.000000000000000000e+01,4.697000000000000000e+03
0.000000000000000000e+00,5.244299999999999518e-01,3.000000000000000000e+01,4.704000000000000000e+03
0.000000000000000000e+00,5.684799999999999853e-01,2.546999999999999886e+01,4.762000000000000000e+03
0.000000000000000000e+00,9.576999999999999957e-01,3.000000000000000000e+01,4.815000000000000000e+03
0.000000000000000000e+00,7.810000000000000275e-01,3.000000000000000000e+01,4.816000000000000000e+03
0.000000000000000000e+00,7.885199999999999987e-01,3.000000000000000000e+01,4.861000000000000000e+03
0.000000000000000000e+00,6.512499999999999956e-01,3.000000000000000000e+01,4.897000000000000000e+03
0.000000000000000000e+00,9.337699999999999889e-01,3.000000000000000000e+01,4.901000000000000000e+03
0.000000000000000000e+00,8.274299999999999988e-01,3.000000000000000000e+01,4.905000000000000000e+03
0.000000000000000000e+00,7.725600000000000245e-01,1.018999999999999950e+01,4.936000000000000000e+03
0.000000000000000000e+00,8.390699999999999825e-01,3.000000000000000000e+01,4.942000000000000000e+03
0.000000000000000000e+00,9.325700000000000101e-01,1.071000000000000085e+01,4.943000000000000000e+03
0.000000000000000000e+00,9.342000000000000304e-01,2.898999999999999844e+01,4.952000000000000000e+03
0.000000000000000000e+00,8.928599999999999870e-01,3.000000000000000000e+01,5.005000000000000000e+03
0.000000000000000000e+00,8.098999999999999533e-01,3.000000000000000000e+01,5.043000000000000000e+03
0.000000000000000000e+00,7.480200000000000182e-01,3.000000000000000000e+01,5.059000000000000000e+03
0.000000000000000000e+00,8.129699999999999704e-01,3.000000000000000000e+01,5.119000000000000000e+03
0.000000000000000000e+00,8.118300000000000516e-01,6.000000000000000000e+01,5.138000000000000000e+03
0.000000000000000000e+00,5.649699999999999722e-01,3.000000000000000000e+01,5.140000000000000000e+03
0.000000000000000000e+00,5.313499999999999890e-01,3.000000000000000000e+01,5.200000000000000000e+03
0.000000000000000000e+00,7.550499999999999989e-01,3.000000000000000000e+01,5.228000000000000000e+03
0.000000000000000000e+00,4.556999999999999940e-01,6.000000000000000000e+01,5.230000000000000000e+03
0.000000000000000000e+00,9.607499999999999929e-01,2.530999999999999872e+01,5.238000000000000000e+03
0.000000000000000000e+00,6.504900000000000126e-01,6.000000000000000000e+01,5.268000000000000000e+03
0.000000000000000000e+00,5.065499999999999448e-01,3.000000000000000000e+01,5.289000000000000000e+03
0.000000000000000000e+00,6.243300000000000516e-01,3.000000000000000000e+01,5.293000000000000000e+03
0.000000000000000000e+00,5.888900000000000245e-01,3.000000000000000000e+01,5.366000000000000000e+03
0.000000000000000000e+00,6.727499999999999591e-01,3.000000000000000000e+01,5.392000000000000000e+03
0.000000000000000000e+00,5.695599999999999552e-01,3.000000000000000000e+01,5.410000000000000000e+03
0.000000000000000000e+00,7.871799999999999908e-01,3.000000000000000000e+01,5.431000000000000000e+03
0.000000000000000000e+00,9.409499999999999531e-01,3.000000000000000000e+01,5.458000000000000000e+03
0.000000000000000000e+00,8.218600000000000350e-01,1.461999999999999922e+01,5.459000000000000000e+03
0.000000000000000000e+00,9.195400000000000240e-01,3.000000000000000000e+01,5.465000000000000000e+03
0.000000000000000000e+00,9.142599999999999616e-01,3.000000000000000000e+01,5.470000000000000000e+03
0.000000000000000000e+00,8.791999999999999815e-01,3.000000000000000000e+01,5.500000000000000000e+03
0.000000000000000000e+00,4.940999999999999837e-01,3.000000000000000000e+01,5.511000000000000000e+03
0.000000000000000000e+00,5.493200000000000305e-01,3.000000000000000000e+01,5.524000000000000000e+03
0.000000000000000000e+00,7.721000000000000085e-01,3.000000000000000000e+01,5.564000000000000000e+03
0.000000000000000000e+00,9.809299999999999686e-01,3.000000000000000000e+01,5.572000000000000000e+03
0.000000000000000000e+00,6.767100000000000337e-01,5.642999999999999972e+01,5.587000000000000000e+03
0.000000000000000000e+00,9.438499999999999668e-01,3.445000000000000284e+01,5.591000000000000000e+03
0.000000000000000000e+00,9.808900000000000396e-01,4.022999999999999687e+01,5.616000000000000000e+03
0.000000000000000000e+00,8.598400000000000487e-01,3.545000000000000284e+01,5.663000000000000000e+03
0.000000000000000000e+00,9.867000000000000215e-01,3.000000000000000000e+01,5.670000000000000000e+03
0.000000000000000000e+00,4.994700000000000251e-01,5.863000000000000256e+01,5.703000000000000000e+03
0.000000000000000000e+00,9.352800000000000002e-01,3.685000000000000142e+01,5.768000000000000000e+03
0.000000000000000000e+00,8.271600000000000064e-01,3.839999999999999858e+01,5.775000000000000000e+03
0.000000000000000000e+00,9.443000000000000282e-01,3.000000000000000000e+01,5.789000000000000000e+03
0.000000000000000000e+00,8.429100000000000481e-01,3.000000000000000000e+01,5.817000000000000000e+03
0.000000000000000000e+00,4.606199999999999739e-01,4.202000000000000313e+01,5.874000000000000000e+03
0.000000000000000000e+00,4.988799999999999901e-01,4.684000000000000341e+01,5.909000000000000000e+03
0.000000000000000000e+00,4.331900000000000195e-01,3.000000000000000000e+01,5.931000000000000000e+03
0.000000000000000000e+00,9.717099999999999627e-01,5.496000000000000085e+01,5.935000000000000000e+03
0.000000000000000000e+00,8.039600000000000080e-01,3.499000000000000199e+01,5.955000000000000000e+03
0.000000000000000000e+00,9.794399999999999773e-01,3.000000000000000000e+01,5.987000000000000000e+03
0.000000000000000000e+00,6.952399999999999691e-01,6.021000000000000085e+01,6.057000000000000000e+03
0.000000000000000000e+00,6.139000000000000012e-01,3.000000000000000000e+01,6.100000000000000000e+03
0.000000000000000000e+00,9.130399999999999627e-01,3.000000000000000000e+01,6.146000000000000000e+03
0.000000000000000000e+00,8.729500000000000037e-01,3.854999999999999716e+01,6.213000000000000000e+03
0.000000000000000000e+00,7.495300000000000296e-01,3.207999999999999829e+01,6.245000000000000000e+03
0.000000000000000000e+00,9.318699999999999761e-01,3.000000000000000000e+01,6.285000000000000000e+03
0.000000000000000000e+00,5.950499999999999678e-01,3.157000000000000028e+01,6.321000000000000000e+03
0.000000000000000000e+00,7.523300000000000542e-01,3.000000000000000000e+01,6.397000000000000000e+03
0.000000000000000000e+00,7.529000000000000137e-01,3.000000000000000000e+01,6.423000000000000000e+03
0.000000000000000000e+00,6.496300000000000407e-01,1.418999999999999950e+01,6.481000000000000000e+03
0.000000000000000000e+00,7.564199999999999813e-01,3.000000000000000000e+01,6.493000000000000000e+03
0.000000000000000000e+00,8.901799999999999713e-01,3.000000000000000000e+01,6.526000000000000000e+03
0.000000000000000000e+00,8.140199999999999658e-01,1.635000000000000142e+01,6.545000000000000000e+03
0.000000000000000000e+00,8.396900000000000475e-01,1.578999999999999915e+01,6.551000000000000000e+03
0.000000000000000000e+00,9.191300000000000026e-01,3.000000000000000000e+01,6.576000000000000000e+03
0.000000000000000000e+00,6.254600000000000160e-01,3.000000000000000000e+01,6.590000000000000000e+03
0.000000000000000000e+00,4.734099999999999975e-01,3.000000000000000000e+01,6.610000000000000000e+03
0.000000000000000000e+00,8.474300000000000166e-01,3.000000000000000000e+01,6.627000000000000000e+03
0.000000000000000000e+00,6.675999999999999712e-01,3.000000000000000000e+01,6.631000000000000000e+03
0.000000000000000000e+00,5.687400000000000233e-01,3.000000000000000000e+01,6.648000000000000000e+03
0.000000000000000000e+00,8.068899999999999961e-01,6.000000000000000000e+01,6.676000000000000000e+03
0.000000000000000000e+00,7.373100000000000209e-01,3.000000000000000000e+01,6.677000000000000000e+03
0.000000000000000000e+00,5.706700000000000106e-01,3.000000000000000000e+01,6.687000000000000000e+03
0.000000000000000000e+00,7.780700000000000394e-01,5.128999999999999915e+01,6.690000000000000000e+03
0.000000000000000000e+00,9.123400000000000398e-01,3.000000000000000000e+01,6.695000000000000000e+03
0.000000000000000000e+00,5.441599999999999770e-01,3.000000000000000000e+01,6.699000000000000000e+03
0.000000000000000000e+00,6.252499999999999725e-01,3.044000000000000128e+01,6.700000000000000000e+03
0.000000000000000000e+00,6.290900000000000380e-01,3.000000000000000000e+01,6.713000000000000000e+03
0.000000000000000000e+00,7.983799999999999786e-01,3.000000000000000000e+01,6.725000000000000000e+03
0.000000000000000000e+00,5.115399999999999947e-01,6.000000000000000000e+01,6.734000000000000000e+03
0.000000000000000000e+00,8.427799999999999736e-01,3.000000000000000000e+01,6.736000000000000000e+03
0.000000000000000000e+00,9.246299999999999519e-01,3.000000000000000000e+01,6.755000000000000000e+03
0.000000000000000000e+00,8.874900000000000011e-01,6.000000000000000000e+01,6.766000000000000000e+03
0.000000000000000000e+00,7.332300000000000484e-01,3.000000000000000000e+01,6.774000000000000000e+03
0.000000000000000000e+00,7.434899999999999842e-01,3.000000000000000000e+01,6.779000000000000000e+03
0.000000000000000000e+00,8.828000000000000291e-01,1.687000000000000099e+01,6.804000000000000000e+03
0.000000000000000000e+00,5.937599999999999545e-01,5.229999999999999716e+01,6.860000000000000000e+03
0.000000000000000000e+00,5.987500000000000044e-01,3.000000000000000000e+01,6.868000000000000000e+03
0.000000000000000000e+00,6.114199999999999635e-01,3.000000000000000000e+01,6.869000000000000000e+03
0.000000000000000000e+00,5.133400000000000185e-01,6.000000000000000000e+01,6.885000000000000000e+03
0.000000000000000000e+00,9.459899999999999975e-01,3.000000000000000000e+01,6.900000000000000000e+03
0.000000000000000000e+00,6.635400000000000187e-01,3.000000000000000000e+01,6.905000000000000000e+03
0.000000000000000000e+00,4.725199999999999956e-01,3.000000000000000000e+01,6.911000000000000000e+03
0.000000000000000000e+00,4.451899999999999746e-01,3.000000000000000000e+01,6.932000000000000000e+03
0.000000000000000000e+00,5.894500000000000295e-01,3.000000000000000000e+01,6.938000000000000000e+03
0.000000000000000000e+00,9.252599999999999714e-01,6.000000000000000000e+01,6.955000000000000000e+03
0.000000000000000000e+00,8.442300000000000360e-01,6.000000000000000000e+01,6.970000000000000000e+03
0.000000000000000000e+00,9.019399999999999640e-01,3.000000000000000000e+01,6.981000000000000000e+03
0.000000000000000000e+00,6.225500000000000478e-01,3.000000000000000000e+01,6.984000000000000000e+03
0.000000000000000000e+00,7.531499999999999861e-01,6.000000000000000000e+01,6.991000000000000000e+03
0.000000000000000000e+00,6.588699999999999557e-01,3.000000000000000000e+01,7.004000000000000000e+03
0.000000000000000000e+00,7.630799999999999805e-01,1.646000000000000085e+01,7.028000000000000000e+03
0.000000000000000000e+00,9.354999999999999982e-01,1.753000000000000114e+01,7.042000000000000000e+03
0.000000000000000000e+00,9.464299999999999935e-01,6.000000000000000000e+01,7.063000000000000000e+03
0.000000000000000000e+00,8.394099999999999895e-01,3.000000000000000000e+01,7.092000000000000000e+03
0.000000000000000000e+00,7.841399999999999482e-01,3.347999999999999687e+01,7.093000000000000000e+03
0.000000000000000000e+00,6.026599999999999735e-01,1.058999999999999986e+01,7.096000000000000000e+03
0.000000000000000000e+00,8.984699999999999909e-01,3.000000000000000000e+01,7.100000000000000000e+03
0.000000000000000000e+00,8.104500000000000037e-01,3.000000000000000000e+01,7.101000000000000000e+03
0.000000000000000000e+00,7.707000000000000517e-01,3.000000000000000000e+01,7.118000000000000000e+03
0.000000000000000000e+00,7.686399999999999899e-01,3.000000000000000000e+01,7.122000000000000000e+03
0.000000000000000000e+00,6.738600000000000145e-01,3.000000000000000000e+01,7.143000000000000000e+03
0.000000000000000000e+00,5.374200000000000088e-01,3.000000000000000000e+01,7.163000000000000000e+03
0.000000000000000000e+00,8.962799999999999656e-01,3.540999999999999659e+01,7.168000000000000000e+03
0.000000000000000000e+00,6.414499999999999647e-01,3.478000000000000114e+01,7.196000000000000000e+03
0.000000000000000000e+00,7.217200000000000282e-01,3.000000000000000000e+01,7.205000000000000000e+03
0.000000000000000000e+00,8.558999999999999941e-01,3.000000000000000000e+01,7.206000000000000000e+03
0.000000000000000000e+00,7.268599999999999506e-01,6.000000000000000000e+01,7.218000000000000000e+03
0.000000000000000000e+00,8.303700000000000525e-01,3.000000000000000000e+01,7.224000000000000000e+03
0.000000000000000000e+00,7.019699999999999829e-01,5.963000000000000256e+01,7.243000000000000000e+03
0.000000000000000000e+00,7.651900000000000368e-01,3.000000000000000000e+01,7.253000000000000000e+03
0.000000000000000000e+00,8.034900000000000375e-01,3.000000000000000000e+01,7.256000000000000000e+03
0.000000000000000000e+00,7.478700000000000347e-01,3.000000000000000000e+01,7.270000000000000000e+03
0.000000000000000000e+00,5.370099999999999874e-01,3.000000000000000000e+01,7.275000000000000000e+03
0.000000000000000000e+00,7.033099999999999907e-01,3.000000000000000000e+01,7.281000000000000000e+03
0.000000000000000000e+00,8.693100000000000271e-01,3.000000000000000000e+01,7.284000000000000000e+03
0.000000000000000000e+00,8.263599999999999834e-01,3.000000000000000000e+01,7.285000000000000000e+03
0.000000000000000000e+00,9.107199999999999740e-01,3.000000000000000000e+01,7.294000000000000000e+03
0.000000000000000000e+00,7.400099999999999456e-01,3.000000000000000000e+01,7.301000000000000000e+03
0.000000000000000000e+00,5.820600000000000218e-01,3.000000000000000000e+01,7.304000000000000000e+03
0.000000000000000000e+00,3.996799999999999797e-01,3.000000000000000000e+01,7.307000000000000000e+03
0.000000000000000000e+00,5.627199999999999980e-01,3.000000000000000000e+01,7.366000000000000000e+03
0.000000000000000000e+00,6.945700000000000207e-01,3.000000000000000000e+01,7.371000000000000000e+03
0.000000000000000000e+00,7.339700000000000113e-01,1.125000000000000000e+01,7.381000000000000000e+03
0.000000000000000000e+00,4.337699999999999889e-01,2.819000000000000128e+01,7.423000000000000000e+03
0.000000000000000000e+00,8.706000000000000405e-01,3.000000000000000000e+01,7.428000000000000000e+03
0.000000000000000000e+00,9.138300000000000312e-01,3.000000000000000000e+01,7.435000000000000000e+03
0.000000000000000000e+00,9.670199999999999907e-01,1.839000000000000057e+01,7.467000000000000000e+03
0.000000000000000000e+00,5.177599999999999980e-01,3.000000000000000000e+01,7.473000000000000000e+03
0.000000000000000000e+00,7.304599999999999982e-01,6.000000000000000000e+01,7.498000000000000000e+03
0.000000000000000000e+00,6.080100000000000504e-01,3.000000000000000000e+01,7.518000000000000000e+03
0.000000000000000000e+00,8.424399999999999666e-01,3.000000000000000000e+01,7.554000000000000000e+03
0.000000000000000000e+00,8.721600000000000463e-01,3.000000000000000000e+01,7.562000000000000000e+03
0.000000000000000000e+00,6.364300000000000512e-01,6.000000000000000000e+01,7.563000000000000000e+03
0.000000000000000000e+00,7.502499999999999725e-01,3.000000000000000000e+01,7.600000000000000000e+03
0.000000000000000000e+00,9.176199999999999912e-01,2.416000000000000014e+01,7.607000000000000000e+03
0.000000000000000000e+00,7.965600000000000458e-01,3.000000000000000000e+01,7.656000000000000000e+03
0.000000000000000000e+00,5.126600000000000046e-01,3.000000000000000000e+01,7.657000000000000000e+03
0.000000000000000000e+00,8.802999999999999714e-01,3.000000000000000000e+01,7.688000000000000000e+03
0.000000000000000000e+00,6.342999999999999750e-01,1.108000000000000007e+01,7.702000000000000000e+03
0.000000000000000000e+00,7.658800000000000052e-01,3.000000000000000000e+01,7.710000000000000000e+03
0.000000000000000000e+00,6.025899999999999590e-01,1.252999999999999936e+01,7.714000000000000000e+03
0.000000000000000000e+00,6.477399999999999824e-01,6.000000000000000000e+01,7.718000000000000000e+03
0.000000000000000000e+00,7.129799999999999471e-01,3.000000000000000000e+01,7.722000000000000000e+03
0.000000000000000000e+00,8.866000000000000547e-01,3.000000000000000000e+01,7.732000000000000000e+03
0.000000000000000000e+00,6.900500000000000522e-01,2.726999999999999957e+01,7.747000000000000000e+03
0.000000000000000000e+00,6.042600000000000193e-01,3.000000000000000000e+01,7.765000000000000000e+03
0.000000000000000000e+00,8.490100000000000424e-01,3.000000000000000000e+01,7.766000000000000000e+03
0.000000000000000000e+00,7.984099999999999531e-01,3.000000000000000000e+01,7.822000000000000000e+03
0.000000000000000000e+00,5.787799999999999612e-01,3.000000000000000000e+01,7.838000000000000000e+03
0.000000000000000000e+00,8.622499999999999609e-01,3.000000000000000000e+01,7.841000000000000000e+03
0.000000000000000000e+00,6.363299999999999512e-01,3.000000000000000000e+01,7.845000000000000000e+03
0.000000000000000000e+00,7.161300000000000443e-01,2.042000000000000171e+01,7.871000000000000000e+03
0.000000000000000000e+00,7.625199999999999756e-01,3.000000000000000000e+01,7.873000000000000000e+03
0.000000000000000000e+00,6.640599999999999836e-01,3.000000000000000000e+01,7.888000000000000000e+03
0.000000000000000000e+00,8.215599999999999570e-01,3.000000000000000000e+01,7.896000000000000000e+03
0.000000000000000000e+00,8.245099999999999651e-01,3.000000000000000000e+01,7.898000000000000000e+03
0.000000000000000000e+00,7.845699999999999896e-01,1.291000000000000014e+01,7.924000000000000000e+03
0.000000000000000000e+00,6.891699999999999493e-01,3.000000000000000000e+01,7.927000000000000000e+03
0.000000000000000000e+00,7.408000000000000140e-01,6.000000000000000000e+01,7.930000000000000000e+03
0.000000000000000000e+00,9.864500000000000490e-01,1.092999999999999972e+01,7.957000000000000000e+03
0.000000000000000000e+00,6.831099999999999950e-01,3.000000000000000000e+01,7.982000000000000000e+03
0.000000000000000000e+00,6.797999999999999599e-01,3.000000000000000000e+01,8.003000000000000000e+03
0.000000000000000000e+00,5.424999999999999822e-01,6.000000000000000000e+01,8.012000000000000000e+03
0.000000000000000000e+00,5.205300000000000482e-01,3.000000000000000000e+01,8.023000000000000000e+03
0.000000000000000000e+00,7.849699999999999456e-01,3.000000000000000000e+01,8.025000000000000000e+03
0.000000000000000000e+00,7.159499999999999753e-01,6.000000000000000000e+01,8.053000000000000000e+03
0.000000000000000000e+00,6.530200000000000449e-01,3.000000000000000000e+01,8.064000000000000000e+03
0.000000000000000000e+00,5.599399999999999933e-01,3.000000000000000000e+01,8.067000000000000000e+03
0.000000000000000000e+00,9.274200000000000221e-01,3.000000000000000000e+01,8.083000000000000000e+03
0.000000000000000000e+00,4.298399999999999999e-01,1.725000000000000000e+01,8.085000000000000000e+03
0.000000000000000000e+00,5.489199999999999635e-01,3.000000000000000000e+01,8.132000000000000000e+03
0.000000000000000000e+00,7.388200000000000323e-01,3.000000000000000000e+01,8.154000000000000000e+03
0.000000000000000000e+00,6.988499999999999712e-01,1.340000000000000036e+01,8.156000000000000000e+03
0.000000000000000000e+00,6.562599999999999545e-01,3.000000000000000000e+01,8.242000000000000000e+03
0.000000000000000000e+00,6.090400000000000258e-01,3.236999999999999744e+01,8.248000000000000000e+03
0.000000000000000000e+00,8.426099999999999701e-01,6.000000000000000000e+01,8.279000000000000000e+03
0.000000000000000000e+00,7.971399999999999597e-01,3.000000000000000000e+01,8.290000000000000000e+03
0.000000000000000000e+00,8.510900000000000132e-01,3.000000000000000000e+01,8.294000000000000000e+03
0.000000000000000000e+00,8.963100000000000511e-01,3.000000000000000000e+01,8.304000000000000000e+03
0.000000000000000000e+00,8.473800000000000221e-01,6.000000000000000000e+01,8.305000000000000000e+03
0.000000000000000000e+00,6.103800000000000336e-01,3.183999999999999986e+01,8.328000000000000000e+03
0.000000000000000000e+00,7.523100000000000342e-01,3.000000000000000000e+01,8.371000000000000000e+03
0.000000000000000000e+00,5.357100000000000195e-01,6.000000000000000000e+01,8.392000000000000000e+03
0.000000000000000000e+00,9.962600000000000344e-01,1.083999999999999986e+01,8.422000000000000000e+03
0.000000000000000000e+00,7.688899999999999624e-01,3.000000000000000000e+01,8.466000000000000000e+03
0.000000000000000000e+00,5.380000000000000338e-01,2.021999999999999886e+01,8.495000000000000000e+03
0.000000000000000000e+00,8.390199999999999880e-01,3.000000000000000000e+01,8.500000000000000000e+03
0.000000000000000000e+00,8.226200000000000179e-01,3.000000000000000000e+01,8.523000000000000000e+03
