-2.611396485008299351e-04
4.300587461329996586e-04
1.029359409585595131e-03
3.536062431521713734e-04
-7.621741970069706440e-04
1.110780052840709686e-03
1.524490653537213802e-03
-2.204338321462273598e-03
-2.630784874781966209e-04
1.874077832326292992e-03
5.391933373175561428e-04
-3.667583223432302475e-04
2.322671003639698029e-03
1.644686562940478325e-03
1.053185667842626572e-03
2.373545663431286812e-03
-2.577195176854729652e-03
-2.308829862158745527e-04
-7.772307726554572582e-04
-1.181602128781378269e-04
-3.598541487008333206e-03
-1.389700686559081078e-03
-3.054288681596517563e-04
9.172097197733819485e-04
-9.314069757238030434e-04
-5.760343279689550400e-03
-2.736366121098399162e-03
-4.931762814521789551e-03
-5.854343529790639877e-03
-5.217593163251876831e-03
-5.124831572175025940e-03
-3.009757958352565765e-03
-3.558110911399126053e-04
-8.760668337345123291e-03
-7.982173934578895569e-03
-5.497746169567108154e-03
-5.493605509400367737e-03
-5.295554641634225845e-03
-6.160751217976212502e-04
-2.874132245779037476e-03
-2.376176416873931885e-03
3.117420244961977005e-03
1.281937351450324059e-03
1.045910175889730453e-03
1.612047897651791573e-03
-5.028198938816785812e-05
1.271677552722394466e-03
9.296055883169174194e-03
1.452354015782475471e-03
2.634710632264614105e-03
4.607136361300945282e-03
3.191935829818248749e-03
2.982892096042633057e-03
1.791029120795428753e-03
-1.666198018938302994e-03
7.743099704384803772e-04
4.269298631697893143e-03
-2.576097380369901657e-03
-3.911251202225685120e-03
-2.358402824029326439e-03
-5.587303545325994492e-03
-9.062816388905048370e-03
-4.758637864142656326e-03
-6.947542540729045868e-03
-3.145977389067411423e-03
1.411135774105787277e-03
-4.740387666970491409e-03
-8.028768002986907959e-03
-1.677780528552830219e-04
1.376733183860778809e-03
3.829367691650986671e-03
2.900833496823906898e-03
1.885995501652359962e-03
7.349576801061630249e-03
1.041973475366830826e-02
5.747698247432708740e-03
5.092866718769073486e-03
1.001801155507564545e-02
8.241377770900726318e-03
4.326717928051948547e-03
1.334366668015718460e-02
-1.812343485653400421e-03
-3.953462932258844376e-03
-1.288114953786134720e-02
-2.901995554566383362e-03
-6.209318060427904129e-03
-2.748402068391442299e-03
-9.427484124898910522e-03
-1.569192297756671906e-02
-1.738611236214637756e-02
-1.123104896396398544e-02
-8.463154546916484833e-03
-9.897060692310333252e-03
-2.675523050129413605e-02
-1.296118088066577911e-02
-4.270831122994422913e-03
4.759263538289815187e-04
2.100221440196037292e-02
4.896788857877254486e-03
1.890652626752853394e-02
-2.698504365980625153e-03
2.159758657217025757e-02
2.097766660153865814e-02
2.152325585484504700e-02
1.085034105926752090e-02
1.963764056563377380e-02
3.327311575412750244e-02
1.339382305741310120e-02
6.599862128496170044e-03
1.754727913066744804e-03
4.373173229396343231e-03
1.532125053927302361e-03
3.686819225549697876e-03
-7.381934672594070435e-03
-8.610699325799942017e-03
-9.733595885336399078e-03
-3.976300358772277832e-03
-6.591496989130973816e-03
-2.998632378876209259e-03
-6.568596232682466507e-03
3.857768839225172997e-03
-1.237145508639514446e-03
3.266520332545042038e-03
8.239346556365489960e-03
7.064008619636297226e-03
9.545656852424144745e-03
6.864974740892648697e-03
8.669812232255935669e-03
5.954133812338113785e-03
6.450778804719448090e-03
5.162033718079328537e-03
7.043249439448118210e-03
4.276866093277931213e-03
6.858110427856445312e-04
4.380261525511741638e-03
2.100106561556458473e-03
3.059803508222103119e-03
5.372298182919621468e-04
2.582009183242917061e-04
8.174940012395381927e-05
-2.322545624338090420e-04
-5.292519927024841309e-05
1.850698376074433327e-03
2.362632891163229942e-03
3.216929268091917038e-03
2.081051236018538475e-03
-5.001958925276994705e-04
1.240340527147054672e-03
4.487633239477872849e-03
2.679950091987848282e-03
1.759862760081887245e-03
-1.075479201972484589e-03
3.923028707504272461e-03
6.302660913206636906e-04
3.739876672625541687e-03
3.385736374184489250e-03
2.770071150735020638e-03
1.595217501744627953e-03
9.378063259646296501e-04
-2.830056007951498032e-03
-1.117638079449534416e-03
7.036704919300973415e-04
-3.903404285665601492e-05
1.202209852635860443e-03
-2.618325175717473030e-03
-2.492344472557306290e-03
-5.386784672737121582e-03
-3.834307193756103516e-03
-1.481545623391866684e-03
-2.368961693719029427e-03
-2.375996264163404703e-04
-5.404891562648117542e-04
1.431824639439582825e-04
-2.033285796642303467e-03
-7.915768073871731758e-04
-1.314354594796895981e-04
-1.451954012736678123e-03
-1.210266258567571640e-03
-8.541081333532929420e-04
-1.421312335878610611e-03
-3.174804151058197021e-03
-1.369788544252514839e-03
-1.272412016987800598e-03
-2.364215673878788948e-03
-5.560155026614665985e-03
-5.254466552287340164e-03
-3.720430657267570496e-03
-4.924023523926734924e-03
-5.522815976291894913e-03
-3.821374848484992981e-03
-5.168150179088115692e-03
-2.334999153390526772e-03
-8.921333588659763336e-03
-7.613428402692079544e-03
-8.266075514256954193e-03
-5.106585100293159485e-03
-6.624221801757812500e-03
2.431311877444386482e-03
-4.263204522430896759e-03
-1.860367483459413052e-03
1.575436908751726151e-03
9.468236938118934631e-03
5.817108787596225739e-03
2.905139233916997910e-03
-2.878474770113825798e-03
2.439030795358121395e-04
3.614216111600399017e-03
-3.348933532834053040e-04
1.659797504544258118e-03
-2.566377632319927216e-03
-3.000073600560426712e-03
-2.795631997287273407e-03
-3.251011716201901436e-03
-3.926094155758619308e-03
2.927572932094335556e-04
-2.764236181974411011e-03
-1.961905043572187424e-03
-1.200239290483295918e-03
-2.778675872832536697e-03
-3.354462329298257828e-03
-3.628790378570556641e-03
-3.684411523863673210e-03
-3.937946632504463196e-03
-4.287314601242542267e-03
-6.856017746031284332e-03
-7.910414598882198334e-03
-6.173965521156787872e-03
-7.146684452891349792e-03
-6.776418536901473999e-03
-6.820947863161563873e-03
-7.842264138162136078e-03
-6.970479618757963181e-03
-7.289081811904907227e-03
-6.018301006406545639e-03
-7.552742026746273041e-03
-5.423774477094411850e-03
-4.140982870012521744e-03
-7.851136848330497742e-03
-5.869380198419094086e-03
-5.886031314730644226e-03
-7.446704432368278503e-03
-9.941004216670989990e-03
-1.099676080048084259e-02
-7.273871451616287231e-03
-1.242527551949024200e-02
-7.499727886170148849e-03
-9.194915182888507843e-03
-1.008690707385540009e-02
-1.421779766678810120e-02
-1.230049133300781250e-02
-1.398021169006824493e-02
-1.297484152019023895e-02
-1.609569042921066284e-02
-6.610669195652008057e-03
-1.143841538578271866e-02
4.192250315099954605e-03
-8.016716688871383667e-03
3.681991249322891235e-03
-1.375732105225324631e-02
-5.521698389202356339e-03
-2.014843514189124107e-03
3.343986347317695618e-03
-3.233579918742179871e-02
-2.732237614691257477e-02
-2.699420973658561707e-02
-6.132889539003372192e-02
-6.226954981684684753e-02
-4.668010398745536804e-02
-7.647112011909484863e-02
-7.152695208787918091e-02
-4.711896926164627075e-02
-5.277580022811889648e-02
-2.794159390032291412e-02
3.402135148644447327e-02
2.290586754679679871e-02
4.540973156690597534e-02
1.731773838400840759e-02
8.610568195581436157e-02
8.000205457210540771e-02
1.166493073105812073e-01
7.836389541625976562e-02
8.023457229137420654e-02
1.179546713829040527e-01
6.720713526010513306e-02
6.299624592065811157e-02
3.192255273461341858e-02
-2.213689312338829041e-02
-2.559453435242176056e-02
-2.440218813717365265e-02
-9.406233578920364380e-02
-1.237763911485671997e-01
-8.690401911735534668e-02
-1.119119375944137573e-01
-1.204433217644691467e-01
-6.175388768315315247e-02
-8.078268170356750488e-02
-8.211768418550491333e-02
1.129504642449319363e-03
3.429653123021125793e-02
6.896416842937469482e-02
4.184104874730110168e-02
1.180420592427253723e-01
1.085906922817230225e-01
1.563178747892379761e-01
1.668871194124221802e-01
1.351860314607620239e-01
1.487275511026382446e-01
1.058855503797531128e-01
8.217726647853851318e-02
3.215083107352256775e-02
-4.291063174605369568e-02
-1.088751181960105896e-01
-1.436623036861419678e-01
-2.064750045537948608e-01
-2.316022664308547974e-01
-2.373055666685104370e-01
-2.449120730161666870e-01
-1.773428171873092651e-01
-1.378227472305297852e-01
-1.532595008611679077e-01
-6.594112515449523926e-02
3.864123672246932983e-02
1.568541973829269409e-01
1.988089382648468018e-01
1.536087989807128906e-01
3.167880177497863770e-01
2.267703413963317871e-01
3.805209100246429443e-01
2.448292523622512817e-01
2.445917874574661255e-01
1.645631194114685059e-01
1.376869380474090576e-01
8.008554577827453613e-02
-4.046072810888290405e-02
-1.367803812026977539e-01
-1.447733789682388306e-01
-8.383766561746597290e-02
-8.550669252872467041e-02
-7.086214423179626465e-02
-3.668490052223205566e-02
-2.387716434895992279e-02
1.771581708453595638e-03
3.248755354434251785e-03
1.091324537992477417e-02
3.656671568751335144e-02
5.221171304583549500e-03
1.286413520574569702e-02
2.791899070143699646e-02
3.105639852583408356e-02
2.428962849080562592e-02
3.237025812268257141e-02
2.948519214987754822e-02
1.597566716372966766e-02
4.854642786085605621e-03
-1.520668156445026398e-03
-2.810304984450340271e-02
-3.494945541024208069e-02
8.650240488350391388e-03
2.599911764264106750e-02
-4.787711892277002335e-03
-4.046293906867504120e-03
5.485276225954294205e-03
1.306685246527194977e-02
1.034355722367763519e-02
1.295639947056770325e-02
1.117459870874881744e-02
4.871929064393043518e-03
1.269078999757766724e-02
6.413933355361223221e-03
9.196250699460506439e-03
-6.117413868196308613e-04
-4.150595981627702713e-03
-4.205159377306699753e-03
-4.230807069689035416e-03
-4.241078160703182220e-03
2.089232206344604492e-03
-7.425406016409397125e-03
-1.725927367806434631e-02
-3.201058367267251015e-03
4.953005118295550346e-04
-2.500129863619804382e-02
-1.057484094053506851e-02
-1.237733755260705948e-02
-1.885649003088474274e-02
-3.066136129200458527e-02
9.540594182908535004e-03
-2.139980532228946686e-02
-1.977001689374446869e-02
5.955395288765430450e-03
2.898068167269229889e-02
-1.042336691170930862e-03
1.202012691646814346e-02
2.314651943743228912e-02
2.210813388228416443e-02
5.889188870787620544e-02
4.865103214979171753e-02
6.150386109948158264e-02
2.409457229077816010e-02
5.187558010220527649e-02
1.669980958104133606e-02
1.603761315345764160e-02
-1.314837485551834106e-02
1.074007013812661171e-03
-1.107064168900251389e-02
-4.038973245769739151e-03
-1.698817685246467590e-02
-1.375138643197715282e-03
-1.338149886578321457e-04
4.123877151869237423e-04
-7.511810865253210068e-03
4.206897225230932236e-03
-9.301219834014773369e-04
-1.080868765711784363e-03
7.867499254643917084e-03
-2.685820218175649643e-04
3.011237364262342453e-03
1.546674640849232674e-03
1.104828994721174240e-02
9.974855929613113403e-03
9.539402090013027191e-03
6.741050165146589279e-03
3.160808701068162918e-03
2.933485433459281921e-03
3.482997184619307518e-03
6.955407559871673584e-03
4.467782098799943924e-03
2.735821530222892761e-03
6.219861097633838654e-03
2.389776287600398064e-03
3.169615752995014191e-03
-1.034994376823306084e-03
5.375923588871955872e-03
1.263170153833925724e-03
2.130830893293023109e-03
3.998714499175548553e-03
1.030641258694231510e-03
3.674192586913704872e-03
2.819374436512589455e-03
1.402973430231213570e-03
1.241262303665280342e-03
7.937121554277837276e-04
3.678889945149421692e-03
4.086033906787633896e-03
1.684566028416156769e-03
1.874304609373211861e-03
-1.524088671430945396e-03
6.398418918251991272e-06
-7.971678278408944607e-04
1.011201646178960800e-03
-1.943955896422266960e-03
-2.645469270646572113e-03
-2.762880176305770874e-03
-1.853297697380185127e-03
-1.833400106988847256e-03
-2.822381677106022835e-03
-5.093003157526254654e-03
-2.190777799114584923e-03
-3.203225554898381233e-03
-8.408358553424477577e-04
-6.225918768905103207e-04
-5.990067729726433754e-04
2.460541436448693275e-04
-3.456020494922995567e-03
-2.389051020145416260e-03
-9.876439580693840981e-04
-1.285164034925401211e-03
6.605791859328746796e-04
1.679331995546817780e-03
-3.022279124706983566e-04
7.033784058876335621e-04
-1.332056475803256035e-03
-1.660867594182491302e-03
-2.551600919105112553e-04
1.042015384882688522e-03
1.341872848570346832e-03
-2.174925757572054863e-04
-9.253699681721627712e-04
-5.074801156297326088e-04
8.471412002108991146e-04
-2.703830599784851074e-03
-2.885062247514724731e-03
-3.114348975941538811e-03
-3.418327774852514267e-03
-2.160088159143924713e-03
-9.949774248525500298e-04
-2.979173557832837105e-03
-4.022336564958095551e-03
-3.698012791574001312e-03
-1.381082809530198574e-03
-3.010725602507591248e-03
-9.984790813177824020e-04
-1.935552340000867844e-03
-2.899935003370046616e-03
-2.117330674082040787e-03
-2.230312209576368332e-03
-3.626647870987653732e-03
-2.818764653056859970e-03
-5.941822659224271774e-03
-6.128163076937198639e-04
-2.215240616351366043e-03
-2.131380140781402588e-03
-2.135084941983222961e-03
-4.682185593992471695e-03
-7.049282081425189972e-03
-6.235929671674966812e-03
-1.217061770148575306e-03
-5.406459793448448181e-03
-7.861474528908729553e-03
-7.337280549108982086e-03
-6.555184721946716309e-03
-6.692635826766490936e-03
-8.438134565949440002e-03
-6.675228476524353027e-03
-7.793436292558908463e-03
-7.974226027727127075e-03
-7.242362480610609055e-03
-6.945580244064331055e-03
-8.393312804400920868e-03
-9.218463674187660217e-03
-9.059784933924674988e-03
-6.765940226614475250e-03
-6.977891549468040466e-03
-6.809222977608442307e-03
-9.666401892900466919e-03
-7.104699499905109406e-03
-7.953050546348094940e-03
-1.141705270856618881e-02
-1.161451172083616257e-02
-1.053841039538383484e-02
-1.234025228768587112e-02
-1.050329301506280899e-02
-1.224412582814693451e-02
-1.106197759509086609e-02
-1.266548689454793930e-02
-1.135552674531936646e-02
-1.085660606622695923e-02
-9.457723237574100494e-03
-7.998433895409107208e-03
-9.793458506464958191e-03
-1.163953263312578201e-02
-7.396724540740251541e-03
-1.093791425228118896e-02
-1.429396681487560272e-02
-1.763829216361045837e-02
-1.823056489229202271e-02
-3.605287149548530579e-02
-3.111339919269084930e-02
-2.188813686370849609e-02
-3.335164487361907959e-02
-3.332651779055595398e-02
-1.830256916582584381e-02
-3.778421506285667419e-02
-3.226843848824501038e-02
1.322120148688554764e-02
1.762936450541019440e-02
9.977084584534168243e-03
-1.037298701703548431e-02
5.180791392922401428e-02
3.208962455391883850e-02
5.194921046495437622e-02
6.887652724981307983e-02
4.419654980301856995e-02
4.350728541612625122e-02
7.798414677381515503e-02
5.621052533388137817e-02
2.947718091309070587e-02
-1.864760182797908783e-03
-2.825178951025009155e-02
-9.400101378560066223e-03
-3.252461552619934082e-02
-8.237370848655700684e-02
-7.861335575580596924e-02
-8.745260536670684814e-02
-7.217729836702346802e-02
-6.400301307439804077e-02
-2.215078845620155334e-02
-7.784570008516311646e-02
-4.020017758011817932e-02
1.092959381639957428e-02
2.510880492627620697e-02
2.432677149772644043e-02
5.440319329500198364e-02
5.102284252643585205e-02
1.087609753012657166e-01
9.260824322700500488e-02
1.043607890605926514e-01
1.150449737906455994e-01
7.950726896524429321e-02
8.886124193668365479e-02
6.386338919401168823e-02
4.905126243829727173e-02
1.755927503108978271e-02
1.306626759469509125e-02
-3.184577822685241699e-02
-6.995636224746704102e-02
-1.144061610102653503e-01
-1.063010990619659424e-01
-1.133142560720443726e-01
-1.814576834440231323e-01
-2.063116580247879028e-01
-2.129706442356109619e-01
-2.138496488332748413e-01
-1.933885365724563599e-01
-1.335651725530624390e-01
-1.386431008577346802e-01
-1.312950104475021362e-01
4.013851284980773926e-02
1.573983877897262573e-01
6.322423368692398071e-02
2.892925143241882324e-01
2.029563784599304199e-01
3.649561405181884766e-01
3.437247872352600098e-01
4.164721071720123291e-01
2.748966217041015625e-01
3.153790235519409180e-01
2.107839584350585938e-01
1.753985881805419922e-01
-1.561149768531322479e-02
-1.749444752931594849e-01
-2.793390452861785889e-01
-1.982474029064178467e-01
-1.397739052772521973e-01
-6.179999932646751404e-02
-9.587460756301879883e-02
-2.633782289922237396e-02
6.682749371975660324e-03
-9.612697176635265350e-03
1.921853981912136078e-02
3.972082957625389099e-02
2.180823870003223419e-02
7.131172716617584229e-02
4.871702194213867188e-02
7.390952855348587036e-02
5.404216051101684570e-02
7.147767394781112671e-02
4.939962178468704224e-02
6.409075856208801270e-02
4.109264910221099854e-02
3.106033988296985626e-02
-3.292968496680259705e-02
-3.306239098310470581e-02
5.555404350161552429e-03
4.669309128075838089e-03
-6.078775506466627121e-03
1.087098382413387299e-02
2.482710639014840126e-03
1.310617849230766296e-02
5.048156715929508209e-03
-2.428364241495728493e-03
7.011980749666690826e-03
-3.232002258300781250e-03
7.123815827071666718e-03
4.802313633263111115e-03
-5.991179030388593674e-03
6.267501157708466053e-04
-6.319974549114704132e-03
3.838170785456895828e-03
2.667920663952827454e-03
8.330223150551319122e-03
-2.954461611807346344e-03
-4.177545197308063507e-03
3.674261737614870071e-03
1.243289443664252758e-03
9.864621795713901520e-03
1.071614772081375122e-02
-1.562085933983325958e-03
-1.516743283718824387e-02
-8.437618613243103027e-03
-1.908785197883844376e-03
-2.556998096406459808e-02
-3.320686519145965576e-02
-1.678819954395294189e-02
-2.964881062507629395e-02
-3.977645188570022583e-02
-3.752373531460762024e-02
-1.082486379891633987e-02
-4.563883319497108459e-02
-1.249924115836620331e-02
4.705162346363067627e-02
1.746205613017082214e-02
3.367277607321739197e-02
3.112152218818664551e-02
8.206200599670410156e-02
5.888139083981513977e-02
9.233492612838745117e-02
7.307022064924240112e-02
5.407537147402763367e-02
2.524693123996257782e-02
1.956170052289962769e-02
6.356792990118265152e-03
-1.004191488027572632e-02
-2.427655830979347229e-02
-4.309711605310440063e-02
-1.594646833837032318e-02
-1.846207864582538605e-02
-1.667602173984050751e-02
-4.069741349667310715e-03
-2.490515820682048798e-03
-2.594745345413684845e-02
1.174220908433198929e-02
4.866386763751506805e-03
1.702222623862326145e-03
5.353136453777551651e-03
1.453669858165085316e-03
2.552402019500732422e-02
1.027382351458072662e-02
2.491994388401508331e-02
1.781578175723552704e-02
2.221670001745223999e-02
1.663370989263057709e-02
1.543647143989801407e-02
5.869604647159576416e-03
4.603941459208726883e-03
1.694571599364280701e-02
9.195346385240554810e-03
1.131161209195852280e-02
6.471897009760141373e-03
7.407107390463352203e-03
8.306541480123996735e-03
7.123501505702733994e-03
1.141863316297531128e-02
8.462291210889816284e-03
6.526553072035312653e-03
5.139982793480157852e-03
5.821650847792625427e-03
4.366205073893070221e-03
2.448678947985172272e-03
8.567453362047672272e-03
8.454973809421062469e-03
8.967200294137001038e-03
6.665746681392192841e-03
8.795961737632751465e-03
6.193387322127819061e-03
7.524759974330663681e-03
1.757136778905987740e-03
4.157700575888156891e-03
7.880053482949733734e-03
6.164813414216041565e-03
4.493133630603551865e-03
3.734292462468147278e-03
4.249054007232189178e-03
8.848048746585845947e-04
3.569775028154253960e-03
1.359947142191231251e-03
1.860548392869532108e-03
2.051403978839516640e-03
2.072722883895039558e-03
1.449632574804127216e-03
-3.939951420761644840e-04
-2.074611606076359749e-03
-1.746251247823238373e-03
2.081829123198986053e-03
-2.206067554652690887e-03
5.015370552428066730e-04
2.125905593857169151e-03
-2.726764068938791752e-05
2.917898818850517273e-03
-2.067872555926442146e-03
-2.842781133949756622e-03
-1.724869944155216217e-04
-5.748376133851706982e-04
1.541781937703490257e-03
2.591361990198493004e-04
-3.470878815278410912e-03
-1.861263299360871315e-03
-1.590380677953362465e-03
-4.102159291505813599e-03
-1.585747115314006805e-03
-1.982477493584156036e-03
-1.351664308458566666e-03
-2.090073656290769577e-03
2.520589041523635387e-04
-1.526635605841875076e-03
2.572957309894263744e-04
2.033879514783620834e-03
-3.242373466491699219e-03
3.188273985870182514e-04
-5.184690235182642937e-04
1.860803022282198071e-04
2.149548847228288651e-03
1.388680539093911648e-03
-2.999091520905494690e-06
2.414428890915587544e-04
-2.530191792175173759e-03
-3.779991064220666885e-03
-4.348242655396461487e-03
-3.315633162856101990e-03
3.695133607834577560e-03
1.179714221507310867e-03
5.218196893110871315e-04
-3.336061257869005203e-03
-4.468093160539865494e-03
-1.847918145358562469e-03
8.748911204747855663e-04
-2.789519028738141060e-03
-3.852511290460824966e-04
9.521510219201445580e-04
-2.790479920804500580e-03
3.149701224174350500e-04
-4.017063882201910019e-03
-4.337674938142299652e-03
-4.135577473789453506e-03
-3.080939641222357750e-03
-3.793238429352641106e-04
-3.295733826234936714e-03
-3.972949460148811340e-03
-6.943176034837961197e-03
-6.455154158174991608e-03
-3.448743373155593872e-03
-1.843911479227244854e-03
-3.299647010862827301e-03
-1.736122067086398602e-04
-4.417230375111103058e-03
-3.007146297022700310e-03
-5.038117524236440659e-03
-6.901087239384651184e-03
-4.858643282204866409e-03
-6.214649416506290436e-03
-6.860875058919191360e-03
-3.513721749186515808e-03
-5.263911560177803040e-03
-8.376887068152427673e-03
-7.722770329564809799e-03
-1.108904927968978882e-02
-7.165851537138223648e-03
-8.751661516726016998e-03
-1.145976409316062927e-02
-1.052080653607845306e-02
-1.077325269579887390e-02
-1.211927272379398346e-02
-1.125988457351922989e-02
-1.044198404997587204e-02
-8.475649170577526093e-03
-1.280142925679683685e-02
-1.113528292626142502e-02
-1.281398348510265350e-02
-1.262327004224061966e-02
-1.028617005795240402e-02
-1.631889678537845612e-02
-1.536978222429752350e-02
-1.733806915581226349e-02
-1.670100726187229156e-02
-1.747745648026466370e-02
-1.714808307588100433e-02
-1.322858966886997223e-02
-1.713231578469276428e-02
-2.098114788532257080e-02
-1.389950327575206757e-02
-2.054911106824874878e-02
-2.404820546507835388e-02
-2.323521114885807037e-02
-1.839703321456909180e-02
-2.897880040109157562e-02
-2.007183805108070374e-02
-1.920112408697605133e-02
-2.743842080235481262e-02
-1.241467986255884171e-02
-1.106634642928838730e-02
-5.202618427574634552e-03
-3.230006620287895203e-02
2.570732310414314270e-02
9.870063513517379761e-03
3.928085789084434509e-02
2.387722954154014587e-02
3.504855185747146606e-02
3.988414630293846130e-02
4.903450980782508850e-02
4.790746048092842102e-02
3.155912458896636963e-02
6.008524447679519653e-03
-1.746712718158960342e-03
6.892801728099584579e-03
-2.844143658876419067e-02
-5.584103241562843323e-02
-5.927989631891250610e-02
-2.731756120920181274e-02
-3.562082722783088684e-02
-3.877004235982894897e-02
-4.782622680068016052e-02
-4.873977601528167725e-02
1.263900473713874817e-02
7.750453427433967590e-03
2.464650571346282959e-02
1.587765477597713470e-02
2.572034485638141632e-02
7.037621736526489258e-02
7.084464281797409058e-02
6.238523498177528381e-02
3.477633744478225708e-02
3.827614337205886841e-02
3.672874346375465393e-02
-1.187392417341470718e-02
-4.405085742473602295e-02
-1.013134494423866272e-01
-1.385073065757751465e-01
-1.376332491636276245e-01
-1.560678631067276001e-01
-2.473141700029373169e-01
-2.426057606935501099e-01
-1.981352567672729492e-01
-1.862689703702926636e-01
-1.333023905754089355e-01
-8.090582489967346191e-02
-8.374663442373275757e-02
1.367655396461486816e-01
1.106570437550544739e-01
2.478972226381301880e-01
2.763484418392181396e-01
2.989588081836700439e-01
3.523250818252563477e-01
3.965991735458374023e-01
2.926205694675445557e-01
3.305826187133789062e-01
1.936146169900894165e-01
2.097408175468444824e-01
-4.285768046975135803e-02
-1.689852029085159302e-01
-3.271745741367340088e-01
-2.777460217475891113e-01
-2.365941852331161499e-01
-1.763572543859481812e-01
-1.704047173261642456e-01
-3.080950118601322174e-03
-3.951028361916542053e-02
3.926966339349746704e-02
2.552373521029949188e-02
9.905020892620086670e-02
1.393430531024932861e-01
2.018211483955383301e-01
1.271861493587493896e-01
2.034440189599990845e-01
1.290032267570495605e-01
1.022692918777465820e-01
3.273486346006393433e-02
2.435412071645259857e-02
-5.914667993783950806e-02
-8.378702402114868164e-02
-4.030505567789077759e-02
-1.812857016921043396e-02
-3.528437390923500061e-02
1.317294873297214508e-02
6.474812980741262436e-03
7.483984343707561493e-03
3.357404842972755432e-03
9.658946655690670013e-03
7.239245809614658356e-03
-3.592828870750963688e-04
1.587254181504249573e-02
1.427415013313293457e-02
8.137041702866554260e-03
3.243752289563417435e-03
-9.104023920372128487e-04
3.783204825595021248e-03
6.020579952746629715e-03
6.717219948768615723e-04
5.940863396972417831e-03
7.052421104162931442e-03
5.755823105573654175e-03
6.784964818507432938e-03
1.683002337813377380e-03
5.984765477478504181e-03
1.967148389667272568e-03
2.167315687984228134e-04
3.166003152728080750e-03
-9.803179418668150902e-04
-1.044374890625476837e-02
-8.077742531895637512e-03
4.704622551798820496e-03
-6.621793378144502640e-03
-1.676583476364612579e-02
-9.417930617928504944e-03
-2.292132470756769180e-03
-1.468288805335760117e-02
-1.544231548905372620e-02
-5.033204331994056702e-03
-2.652623876929283142e-02
-1.026540156453847885e-02
4.692426882684230804e-03
6.227156147360801697e-03
-1.997492276132106781e-02
2.352871233597397804e-03
3.353719040751457214e-02
2.167001552879810333e-02
2.365113422274589539e-02
2.674695104360580444e-02
2.489287219941616058e-02
1.186370756477117538e-02
4.759161919355392456e-02
3.010229393839836121e-02
2.158616296947002411e-02
1.595355570316314697e-02
2.581707201898097992e-02
6.613059435039758682e-03
-5.415168590843677521e-03
-2.062479220330715179e-02
-1.982816308736801147e-02
-1.021674019284546375e-03
8.203794248402118683e-03
-4.288486205041408539e-03
5.155686289072036743e-03
-1.880953903310000896e-03
6.962106097489595413e-03
6.992589216679334641e-03
5.146640352904796600e-03
1.877850387245416641e-03
-5.300781049299985170e-05
1.393913850188255310e-02
1.512297708541154861e-02
1.071813330054283142e-02
5.338980816304683685e-03
4.061629064381122589e-03
2.538617001846432686e-03
4.389829002320766449e-03
1.434413250535726547e-03
4.922993481159210205e-03
3.605770762078464031e-04
-1.207142835482954979e-03
-3.583824262022972107e-03
1.184689928777515888e-03
3.256863448768854141e-03
4.395815543830394745e-03
1.721873180940747261e-03
2.078592544421553612e-03
2.720764838159084320e-03
4.070029826834797859e-04
4.975942894816398621e-03
4.265215247869491577e-03
3.262778045609593391e-03
1.065978663973510265e-03
2.322469372302293777e-03
2.319274935871362686e-03
3.371014026924967766e-03
1.451852498576045036e-03
2.667415188625454903e-03
1.572423963807523251e-03
2.677245298400521278e-03
2.625179942697286606e-03
1.904237433336675167e-03
1.548639149405062199e-03
2.223299350589513779e-03
3.222313709557056427e-03
2.303185639902949333e-03
2.351748757064342499e-03
4.276132211089134216e-03
2.333497861400246620e-03
1.664659008383750916e-03
1.221247948706150055e-03
-7.683612057007849216e-05
1.375741790980100632e-03
2.026246860623359680e-03
1.151728443801403046e-03
1.124555361457169056e-03
-7.796435384079813957e-04
1.245557330548763275e-03
-1.048638718202710152e-03
9.009846253320574760e-04
1.544759259559214115e-03
3.979443106800317764e-03
3.381921676918864250e-03
2.794168889522552490e-03
2.031735610216856003e-03
5.099601112306118011e-04
-2.773512096609920263e-04
9.211414144374430180e-04
7.830476970411837101e-04
4.827139782719314098e-04
-2.269758260808885098e-04
-5.644767661578953266e-04
-6.517600850202143192e-04
-1.370972022414207458e-03
-3.877493145409971476e-04
-1.373569597490131855e-03
-3.315954701974987984e-03
-4.520154034253209829e-04
-2.279685111716389656e-03
-3.503125044517219067e-04
-1.914230873808264732e-03
-8.472879417240619659e-04
1.298574206884950399e-04
-3.552456910256296396e-04
-6.323521956801414490e-04
-9.873295202851295471e-04
4.629758041119202971e-05
-2.798187313601374626e-03
1.564349862746894360e-03
3.242985112592577934e-04
-1.363399089314043522e-03
6.632523145526647568e-04
-2.826286247000098228e-03
-1.204109285026788712e-03
-2.983712824061512947e-03
3.675594925880432129e-03
6.995595758780837059e-04
3.340879688039422035e-03
-1.163954148069024086e-03
-1.333423890173435211e-03
8.979882113635540009e-04
-3.494828008115291595e-03
-3.987303934991359711e-03
3.318808041512966156e-03
4.117286880500614643e-04
-5.089572514407336712e-04
-2.365497872233390808e-03
-3.434231504797935486e-03
-1.423343084752559662e-03
-7.897884352132678032e-04
-2.250704914331436157e-03
-1.839062198996543884e-03
-1.589359017089009285e-03
-7.150864694267511368e-04
-1.735978992655873299e-03
-1.480981009081006050e-03
-1.397465122863650322e-03
6.079627200961112976e-04
-1.550609711557626724e-03
-3.264070954173803329e-03
-2.560071879997849464e-03
-3.418094478547573090e-03
-1.631664228625595570e-03
-6.371380295604467392e-03
-4.547968506813049316e-03
-4.261052235960960388e-03
-4.809526260942220688e-03
-4.972430877387523651e-03
-8.611694909632205963e-03
-1.302639022469520569e-03
-4.016193095594644547e-03
-6.031671073287725449e-03
-3.072161693125963211e-03
-6.658726837486028671e-03
-3.842627629637718201e-03
-7.828255183994770050e-03
-8.654422126710414886e-03
-1.044723764061927795e-02
-1.259531825780868530e-02
-1.012717094272375107e-02
-9.460747241973876953e-03
-6.932638585567474365e-03
-1.098230481147766113e-02
-1.109492126852273941e-02
-1.131116878241300583e-02
-1.063471939414739609e-02
-1.272468175739049911e-02
-1.384079363197088242e-02
-1.533531397581100464e-02
-1.688460819423198700e-02
-1.131750736385583878e-02
-1.562074106186628342e-02
-1.228731404989957809e-02
-1.756327971816062927e-02
-8.136014454066753387e-03
-7.365121506154537201e-03
-9.464990347623825073e-03
-1.075781043618917465e-02
-1.513042859733104706e-02
-4.888559225946664810e-03
-1.750598289072513580e-02
-1.773260161280632019e-02
-2.191860601305961609e-02
-3.315337374806404114e-02
-4.562467709183692932e-02
-1.692054420709609985e-02
-2.801818214356899261e-02
-4.689226299524307251e-02
-3.567749261856079102e-02
1.320978533476591110e-02
-2.510899677872657776e-02
9.746245108544826508e-03
2.499581547453999519e-03
4.830782860517501831e-02
-5.359823256731033325e-02
7.012871652841567993e-02
6.749632954597473145e-02
-5.319521576166152954e-02
-4.919879510998725891e-02
-4.036702681332826614e-03
-2.504830062389373779e-02
-7.170598953962326050e-02
4.108148161321878433e-03
-3.701431676745414734e-02
-6.474290043115615845e-02
5.825466662645339966e-02
1.014910340309143066e-01
7.834601216018199921e-03
5.167982727289199829e-02
9.869585186243057251e-02
7.643126696348190308e-02
7.099837809801101685e-02
1.212298497557640076e-01
6.862004101276397705e-02
2.698053233325481415e-02
6.290518492460250854e-02
3.446837142109870911e-02
-4.814704880118370056e-03
-4.860980808734893799e-02
-4.652261734008789062e-02
-7.311119139194488525e-02
-1.351584345102310181e-01
-1.415868997573852539e-01
-1.350377500057220459e-01
-1.737723499536514282e-01
-2.192725539207458496e-01
-1.548423320055007935e-01
-1.729977428913116455e-01
-2.635027468204498291e-01
-1.078496724367141724e-01
-3.848575428128242493e-02
-1.426562815904617310e-01
1.908590435050427914e-03
8.058709651231765747e-02
2.038281410932540894e-01
1.666837930679321289e-01
4.043895006179809570e-01
3.135381340980529785e-01
3.928535580635070801e-01
3.700706958770751953e-01
3.508307933807373047e-01
3.188258111476898193e-01
2.918031513690948486e-01
1.505894064903259277e-01
-6.826835451647639275e-04
-1.882361769676208496e-01
-3.041164577007293701e-01
-2.717561423778533936e-01
-2.324574589729309082e-01
-1.966623961925506592e-01
-1.592754274606704712e-01
-1.460599601268768311e-01
5.966096371412277222e-02
5.573266744613647461e-02
5.932643264532089233e-02
1.038732677698135376e-01
2.020221203565597534e-01
9.841646999120712280e-02
1.664241105318069458e-01
7.867953926324844360e-02
1.132724061608314514e-01
4.476540163159370422e-02
5.663548782467842102e-02
4.780913144350051880e-02
1.269552577286958694e-02
3.582810284569859505e-03
-7.768831681460142136e-03
-6.217702478170394897e-02
-4.241171106696128845e-02
3.405610099434852600e-02
2.770367264747619629e-02
1.486669108271598816e-02
2.434753812849521637e-02
2.068928629159927368e-02
1.799130067229270935e-02
4.556179046630859375e-03
2.376523771090433002e-04
7.011447101831436157e-03
1.948273275047540665e-03
1.632597669959068298e-02
3.420671215280890465e-03
5.669987760484218597e-03
5.824099294841289520e-03
4.120686557143926620e-03
2.749365987256169319e-03
-2.109060296788811684e-03
-2.782576251775026321e-03
-5.850790534168481827e-03
-5.612256005406379700e-03
-1.105707325041294098e-02
-7.336919195950031281e-03
-9.267660789191722870e-03
-5.423552822321653366e-03
-2.479944669175893068e-04
-5.361725576221942902e-03
-8.308519609272480011e-03
-1.262748800218105316e-02
-2.950940281152725220e-02
-3.522107750177383423e-02
-2.470232360064983368e-02
-4.550024121999740601e-02
-5.060502886772155762e-02
-1.148248743265867233e-02
-3.852256760001182556e-02
-3.921580314636230469e-02
-1.405744720250368118e-02
1.699616760015487671e-02
-1.326508354395627975e-02
1.821178384125232697e-02
5.152711644768714905e-02
9.527737647294998169e-02
6.231750920414924622e-02
1.183785572648048401e-01
1.199192479252815247e-01
6.969962269067764282e-02
1.086130514740943909e-01
6.007922068238258362e-02
1.868942566215991974e-02
-1.243241410702466965e-02
-4.326272755861282349e-02
-8.816571533679962158e-02
-5.016779899597167969e-02
-7.615210860967636108e-02
-5.202919617295265198e-02
-6.405770778656005859e-02
-1.640588045120239258e-02
2.186638303101062775e-02
1.844015088863670826e-03
2.372616529464721680e-02
2.088149264454841614e-02
4.990565404295921326e-02
3.150367364287376404e-02
5.886114388704299927e-02
3.528934344649314880e-02
5.719634518027305603e-02
2.609163150191307068e-02
3.644069656729698181e-02
2.479160903021693230e-03
9.754154598340392113e-04
-1.855737355072051287e-05
-3.335465677082538605e-03
8.530788123607635498e-03
1.005023159086704254e-02
6.503111682832241058e-03
5.812460556626319885e-03
4.491928499191999435e-03
3.317736322060227394e-03
8.347610943019390106e-03
5.960843060165643692e-03
5.059446208178997040e-03
-6.030358490534126759e-04
-1.338929636403918266e-03
6.902219611220061779e-04
3.009370062500238419e-03
1.247987500391900539e-03
2.512525767087936401e-03
2.651962451636791229e-03
-1.545080158393830061e-04
-7.851074915379285812e-04
1.770748407579958439e-03
-4.028085619211196899e-03
-6.840811693109571934e-04
-3.102113725617527962e-03
-3.542436286807060242e-03
-7.588855223730206490e-04
-5.229661241173744202e-03
-2.699329284951090813e-03
-2.797315828502178192e-03
1.303201424889266491e-03
1.631701714359223843e-03
5.416856147348880768e-04
1.807085005566477776e-03
8.047036826610565186e-04
1.860848278738558292e-04
-4.153972258791327477e-04
1.582209602929651737e-03
-1.955595798790454865e-04
-8.512522326782345772e-04
2.682194346562027931e-03
-2.161598298698663712e-03
3.169867210090160370e-03
1.150746364146471024e-03
-1.397894695401191711e-03
-9.965891949832439423e-04
-1.698557171039283276e-03
-1.858641277067363262e-03
-1.189208822324872017e-03
6.607654504477977753e-04
4.034059587866067886e-03
2.419332973659038544e-03
-5.901698023080825806e-05
-3.531731199473142624e-03
-7.001057965680956841e-04
7.709964411333203316e-04
5.665214732289314270e-03
2.257985062897205353e-03
1.676476094871759415e-03
4.495080560445785522e-03
1.301998272538185120e-03
-8.008751319721341133e-05
-4.541641683317720890e-04
1.107161515392363071e-03
1.631906838156282902e-03
3.192722797393798828e-04
2.092915819957852364e-04
-2.899319864809513092e-03
-1.889750128611922264e-03
-1.154228579252958298e-03
-1.606888370588421822e-03
-1.986749237403273582e-03
-1.879050862044095993e-03
5.525780725292861462e-04
-2.057956298813223839e-03
-2.108547370880842209e-03
-1.872286316938698292e-03
-1.709950855001807213e-03
1.803073537303134799e-04
2.564670285210013390e-05
-1.105376053601503372e-03
-3.730901749804615974e-03
-2.852767240256071091e-03
-2.204595366492867470e-03
-7.756164297461509705e-03
-8.343928493559360504e-03
-6.383264437317848206e-03
-5.637990310788154602e-03
-8.594876155257225037e-03
-5.594191141426563263e-03
-9.553953073918819427e-03
-9.161471389234066010e-03
-9.818995371460914612e-03
-6.627282127737998962e-03
-1.012886408716440201e-02
-7.795578334480524063e-03
-8.643227629363536835e-03
-7.882094942033290863e-03
-7.306491024792194366e-03
-1.003276184201240540e-02
-1.115315500646829605e-02
-7.031660992652177811e-03
-1.235786732286214828e-02
-1.567786373198032379e-02
-1.122038066387176514e-02
-1.132332906126976013e-02
-1.000665873289108276e-02
-1.497028488665819168e-02
-1.451504603028297424e-02
-1.328278891742229462e-02
-1.350005995482206345e-02
-1.447266153991222382e-02
-1.232882123440504074e-02
-1.247838605195283890e-02
-1.506834290921688080e-02
-1.061078533530235291e-02
-1.217696908861398697e-02
-1.141254231333732605e-02
-1.268951687961816788e-02
-1.185036823153495789e-02
-1.838982105255126953e-02
-1.155614480376243591e-02
-1.452979724854230881e-02
-1.830529049038887024e-02
-1.579414494335651398e-02
-1.408819574862718582e-02
-1.800798252224922180e-02
-1.872199587523937225e-02
-2.340325154364109039e-03
2.271678764373064041e-03
-2.574459882453083992e-03
1.682349480688571930e-02
2.311258949339389801e-02
2.198626473546028137e-02
1.830030977725982666e-02
7.379249483346939087e-02
2.156305685639381409e-02
4.814341291785240173e-02
4.860342293977737427e-02
1.780939288437366486e-02
8.354592719115316868e-04
-5.785681772977113724e-03
-7.266476005315780640e-02
-7.962948083877563477e-02
-5.182554945349693298e-02
-8.640009909868240356e-02
-1.154842525720596313e-01
-6.949003040790557861e-02
-9.799081087112426758e-02
-9.229633957147598267e-02
-3.263070434331893921e-02
-4.498405382037162781e-02
-5.047340691089630127e-02
4.668713081628084183e-03
2.780112624168395996e-02
6.731498241424560547e-02
1.033223271369934082e-01
6.359141319990158081e-02
1.252963393926620483e-01
1.469785571098327637e-01
1.622267216444015503e-01
1.333471983671188354e-01
9.274046123027801514e-02
8.626844733953475952e-02
4.809515923261642456e-02
4.631416872143745422e-02
-3.843120113015174866e-02
-1.049842685461044312e-01
-1.425915360450744629e-01
-1.670558154582977295e-01
-2.013826072216033936e-01
-2.142530530691146851e-01
-2.173870354890823364e-01
-2.407599240541458130e-01
-2.053171843290328979e-01
-1.411142349243164062e-01
-9.713110327720642090e-02
-7.110089808702468872e-02
-4.645906761288642883e-02
1.199933513998985291e-01
1.603002697229385376e-01
1.340971142053604126e-01
3.877494931221008301e-01
2.567151784896850586e-01
4.174318909645080566e-01
3.104924857616424561e-01
3.936281800270080566e-01
2.000107616186141968e-01
2.266649752855300903e-01
4.666320979595184326e-02
-5.426191911101341248e-02
-1.977299004793167114e-01
-1.866728812456130981e-01
-1.920814514160156250e-01
-1.333814859390258789e-01
-6.672383099794387817e-02
-1.044671144336462021e-02
2.050898782908916473e-02
3.951156511902809143e-02
2.657882124185562134e-02
2.212231047451496124e-02
2.101305127143859863e-02
6.667126715183258057e-02
6.761103123426437378e-02
5.306567251682281494e-02
5.286720767617225647e-02
4.068753868341445923e-02
1.950392872095108032e-02
5.849955603480339050e-03
-9.026398882269859314e-03
-4.582247696816921234e-03
1.480617653578519821e-02
1.090521086007356644e-02
5.145539762452244759e-04
4.866844043135643005e-03
2.130550798028707504e-03
4.751657135784626007e-03
4.416466224938631058e-03
5.586860701441764832e-03
7.963449694216251373e-03
4.757798742502927780e-03
3.627265570685267448e-03
5.985275842249393463e-03
5.877059884369373322e-03
4.260860383510589600e-03
1.864283811300992966e-03
2.007422735914587975e-03
4.812441300600767136e-03
2.521511865779757500e-03
9.075839188881218433e-04
-1.431566663086414337e-03
-9.951920947059988976e-05
-1.028243103064596653e-03
-2.815557643771171570e-03
-8.522763848304748535e-03
-8.505607023835182190e-03
-4.188713151961565018e-03
-5.455642240121960640e-04
-2.213795296847820282e-02
-3.438851097598671913e-03
-1.300839520990848541e-02
-1.842910237610340118e-02
-6.159700453281402588e-03
6.237713620066642761e-03
-9.380587376654148102e-03
-2.721256762742996216e-02
3.496835753321647644e-02
-3.691209480166435242e-03
-1.212937198579311371e-02
1.666862331330776215e-02
4.898659512400627136e-02
2.644280716776847839e-02
2.387787401676177979e-02
3.585076332092285156e-02
7.659857627004384995e-03
5.262125283479690552e-02
4.935106262564659119e-02
4.359930753707885742e-02
4.309885844122618437e-05
3.918034210801124573e-02
1.558328140527009964e-02
1.988988928496837616e-02
-4.037445411086082458e-03
-4.034687764942646027e-03
4.915404133498668671e-03
3.724164853338152170e-04
2.621811814606189728e-03
3.220846876502037048e-03
9.682467207312583923e-03
9.920456446707248688e-03
7.487605791538953781e-03
-1.257347525097429752e-03
6.055064033716917038e-03
4.898895975202322006e-03
3.926237113773822784e-03
3.318481380119919777e-03
3.830165602266788483e-03
7.713072933256626129e-03
1.307258731685578823e-03
1.984946196898818016e-03
4.815369844436645508e-03
2.792759565636515617e-03
1.536908792331814766e-03
-1.972642028704285622e-03
3.491218201816082001e-03
4.115709103643894196e-03
3.049284685403108597e-03
-1.305551733821630478e-03
5.316832102835178375e-03
2.487922087311744690e-03
-5.300852935761213303e-04
1.020071562379598618e-03
2.263531554490327835e-03
1.056859036907553673e-03
-1.984950387850403786e-03
-7.794894918333739042e-05
2.250233432278037071e-03
3.219655249267816544e-03
1.161000691354274750e-03
1.926196389831602573e-03
3.220664802938699722e-04
2.644435968250036240e-03
-8.886394207365810871e-04
2.890077419579029083e-03
1.364420866593718529e-03
2.095198724418878555e-04
-9.603449143469333649e-05
2.095385221764445305e-03
-9.928827639669179916e-04
2.252154052257537842e-03
1.806690124794840813e-03
-3.927947487682104111e-03
-1.051251892931759357e-04
-4.232561681419610977e-03
1.812254078686237335e-03
-3.112392034381628036e-03
2.789535326883196831e-03
1.779232115950435400e-04
8.073002099990844727e-04
-1.810690853744745255e-03
5.094323423691093922e-04
4.209409467875957489e-03
-2.066712360829114914e-03
1.147351693361997604e-03
-3.326269332319498062e-03
-2.088148845359683037e-03
-1.000307966023683548e-03
-1.489424728788435459e-03
2.650013659149408340e-03
4.385064821690320969e-03
1.153189223259687424e-03
-3.993281163275241852e-03
-2.777082845568656921e-03
-3.448784118518233299e-03
-2.710287924855947495e-03
-8.249768987298011780e-03
-1.860826276242733002e-03
-3.139233216643333435e-03
-4.789871163666248322e-03
-7.460028398782014847e-03
-8.818634785711765289e-03
-6.666597910225391388e-03
-5.263593979179859161e-03
-6.124494131654500961e-03
-6.996768061071634293e-03
-9.523538872599601746e-03
-6.520602852106094360e-03
-9.054605849087238312e-03
-1.078833732753992081e-02
-9.899086318910121918e-03
-5.713356193155050278e-03
-8.302190341055393219e-03
-7.007976993918418884e-03
-7.369056809693574905e-03
-9.605762548744678497e-03
-8.782368153333663940e-03
-7.364748511463403702e-03
-1.254832278937101364e-02
-1.348747871816158295e-02
-1.331098098307847977e-02
-1.362545508891344070e-02
-1.301871705800294876e-02
-8.043647743761539459e-03
-1.312480866909027100e-02
-1.682867482304573059e-02
-1.345826871693134308e-02
-1.104786060750484467e-02
-1.082328427582979202e-02
-1.289488188922405243e-02
-9.687561541795730591e-03
-1.471261866390705109e-02
-9.390188381075859070e-03
-1.430993340909481049e-02
-1.351829431951045990e-02
-2.210543863475322723e-02
-1.796317286789417267e-02
-2.101934514939785004e-02
-2.587398886680603027e-02
-1.631802134215831757e-02
-3.572945017367601395e-03
-8.661359548568725586e-03
-6.043203640729188919e-03
7.459006737917661667e-03
1.080454979091882706e-02
1.520860102027654648e-02
6.680415943264961243e-03
2.971506863832473755e-02
1.065780036151409149e-02
2.498245425522327423e-02
2.801103703677654266e-02
2.265362069010734558e-02
-9.144474170170724392e-04
-4.974870942533016205e-03
-3.585888771340250969e-03
3.271172521635890007e-03
-4.500224441289901733e-02
-3.659358993172645569e-02
-4.273584112524986267e-02
-6.348846852779388428e-02
-6.499417871236801147e-02
-1.131217274814844131e-02
-3.572898358106613159e-02
-5.157092586159706116e-02
-1.243649795651435852e-02
3.496857360005378723e-02
-7.412182632833719254e-03
4.962315782904624939e-02
3.900590166449546814e-02
5.878331512212753296e-02
5.781496316194534302e-02
6.587776541709899902e-02
6.164296343922615051e-02
2.836345136165618896e-02
5.249617621302604675e-02
7.329368963837623596e-03
-2.840600535273551941e-02
-6.986371427774429321e-02
-8.134762197732925415e-02
-1.083294153213500977e-01
-1.406759023666381836e-01
-1.740869879722595215e-01
-1.780848801136016846e-01
-2.036704868078231812e-01
-1.796364188194274902e-01
-1.368560940027236938e-01
-1.031891703605651855e-01
-1.765798032283782959e-01
-1.762723922729492188e-02
1.469116806983947754e-01
8.748003840446472168e-02
1.940736770629882812e-01
2.165382504463195801e-01
3.556611239910125732e-01
3.047885298728942871e-01
3.807048499584197998e-01
2.695422470569610596e-01
2.514992952346801758e-01
1.672462821006774902e-01
2.028655111789703369e-01
-3.216634690761566162e-02
-1.938416212797164917e-01
-2.482980936765670776e-01
-1.952816098928451538e-01
-1.781692355871200562e-01
-1.197618171572685242e-01
-1.297915279865264893e-01
-5.442409217357635498e-02
-2.822312153875827789e-02
7.768068462610244751e-02
5.407793447375297546e-02
5.026054009795188904e-02
3.837117180228233337e-02
1.415595114231109619e-01
9.835429489612579346e-02
1.111364811658859253e-01
1.060722991824150085e-01
9.687487035989761353e-02
6.924293935298919678e-02
3.822068125009536743e-02
-3.438315913081169128e-02
-4.361965134739875793e-02
-6.337774917483329773e-03
-3.371894359588623047e-02
-2.916762977838516235e-02
7.753138197585940361e-04
-6.936655845493078232e-03
1.813944254536181688e-04
-3.795005381107330322e-03
6.941535975784063339e-03
1.250189542770385742e-02
-2.421909710392355919e-03
6.422305013984441757e-03
6.759509909898042679e-03
-1.912851119413971901e-03
9.097561240196228027e-03
7.612160407006740570e-03
3.880875417962670326e-03
3.309376304969191551e-03
7.332298438996076584e-03
6.560404319316148758e-03
3.858860582113265991e-03
-1.370781566947698593e-03
-2.816188614815473557e-03
8.253184147179126740e-03
4.516510292887687683e-03
-1.639949623495340347e-03
-2.644330495968461037e-03
-3.111702390015125275e-04
-2.220685128122568130e-03
-7.146860938519239426e-03
-4.960745573043823242e-03
-8.528216741979122162e-03
-8.337490260601043701e-03
-2.066656388342380524e-02
3.330980893224477768e-03
-1.542424503713846207e-02
-1.138376723974943161e-02
1.337716006673872471e-03
3.392841899767518044e-03
-2.316750772297382355e-02
-8.323400281369686127e-03
3.950209915637969971e-02
8.927797898650169373e-03
2.318631671369075775e-02
1.501534227281808853e-02
4.099537059664726257e-02
1.909148693084716797e-02
5.288544297218322754e-02
2.824865095317363739e-02
2.816879376769065857e-02
1.437051873654127121e-02
2.147174626588821411e-02
9.718803688883781433e-03
-1.043803058564662933e-03
1.164097152650356293e-02
6.436104886233806610e-03
1.348409987986087799e-02
8.564287796616554260e-03
5.023994483053684235e-03
8.608544245362281799e-03
6.758400239050388336e-03
2.783893607556819916e-03
1.007108949124813080e-03
4.502804484218358994e-03
3.095949301496148109e-03
4.465740174055099487e-03
3.513499628752470016e-03
2.671352121978998184e-03
1.634902204386889935e-03
7.926898542791604996e-04
2.672785427421331406e-03
2.355743432417511940e-03
3.677245927974581718e-03
3.224057378247380257e-03
-4.792137769982218742e-04
3.397419583052396774e-03
3.051381092518568039e-03
3.973907791078090668e-03
2.879177452996373177e-03
5.639289040118455887e-03
3.573946421965956688e-03
3.559868549928069115e-03
2.236083848401904106e-03
3.297393908724188805e-03
1.228017383255064487e-03
4.953502211719751358e-04
2.733632922172546387e-03
2.166417893022298813e-03
1.569626503624022007e-03
7.461500354111194611e-04
3.065126715227961540e-03
6.871268851682543755e-04
9.818214457482099533e-04
-7.916164759080857038e-05
-2.693954447750002146e-04
-7.847421220503747463e-04
1.520496560260653496e-03
-1.141911838203668594e-03
-8.341515203937888145e-04
3.992016718257218599e-04
-1.451155752874910831e-03
-2.730058040469884872e-03
-1.724743284285068512e-03
-2.739698393270373344e-03
-2.180766081437468529e-03
-2.176932059228420258e-03
-1.132247271016240120e-03
9.474903345108032227e-05
-3.202078805770725012e-04
2.975985989905893803e-04
-1.382889342494308949e-03
-1.203747466206550598e-03
-2.509782789275050163e-03
-1.401803107000887394e-03
-2.074559917673468590e-03
-5.518710240721702576e-04
2.828087424859404564e-03
2.033497672528028488e-03
8.176271803677082062e-04
-2.383098239079117775e-03
-2.542395377531647682e-03
-2.963207894936203957e-03
-1.581734977662563324e-03
-1.825098413974046707e-03
-8.270098478533327579e-04
-2.192391548305749893e-03
-5.976325366646051407e-03
-7.112648803740739822e-03
-6.664851680397987366e-03
-6.544073112308979034e-03
-6.393796298652887344e-03
-6.200806237757205963e-03
-4.405064508318901062e-03
-3.351557767018675804e-03
-4.228965844959020615e-03
-3.607168560847640038e-03
-8.333203382790088654e-03
-7.614850532263517380e-03
-3.902323776856064796e-03
-6.556442938745021820e-03
-5.622058641165494919e-03
-4.612606018781661987e-03
-5.832220427691936493e-03
-8.084834553301334381e-03
-1.118362322449684143e-02
-8.133233524858951569e-03
-1.119675766676664352e-02
-1.045132055878639221e-02
-1.286322902888059616e-02
-1.139234937727451324e-02
-8.752469904720783234e-03
-9.641684591770172119e-03
-1.200706884264945984e-02
-1.256388891488313675e-02
-9.640732780098915100e-03
-1.278314273804426193e-02
-1.119612343609333038e-02
-1.315792556852102280e-02
-1.055416185408830643e-02
-1.269110757857561111e-02
-1.119158882647752762e-02
-8.928632363677024841e-03
-1.003776583820581436e-02
-1.017093751579523087e-02
-7.063511293381452560e-03
-9.643635712563991547e-03
-1.284632738679647446e-02
-1.236782595515251160e-02
-1.340512745082378387e-02
-1.639451272785663605e-02
-2.426126413047313690e-02
-2.539011836051940918e-02
-2.303402312099933624e-02
-2.456249482929706573e-02
-2.418524026870727539e-02
-2.665241807699203491e-02
-3.068443946540355682e-02
-1.025479007512331009e-02
1.208725012838840485e-02
-1.419862639158964157e-02
1.117785181850194931e-02
-2.074789954349398613e-03
3.036895021796226501e-02
3.681763261556625366e-02
5.624417960643768311e-02
3.543473780155181885e-02
3.262605145573616028e-02
7.545167952775955200e-02
4.672409966588020325e-02
3.251069411635398865e-02
2.650437410920858383e-03
-2.845596522092819214e-02
-3.347177430987358093e-02
-2.117251604795455933e-02
-8.393244445323944092e-02
-8.582730591297149658e-02
-7.404704391956329346e-02
-6.495504081249237061e-02
-7.438431680202484131e-02
-3.239561105147004128e-03
-2.334057912230491638e-02
-3.279495611786842346e-02
5.568588525056838989e-02
5.507706478238105774e-02
4.986878111958503723e-02
5.942576378583908081e-02
7.379564642906188965e-02
8.001724630594253540e-02
7.650412619113922119e-02
6.599253416061401367e-02
3.698448464274406433e-02
3.111590631306171417e-02
1.201491989195346832e-02
-2.400621399283409119e-02
-4.174411296844482422e-02
-1.013315841555595398e-01
-1.151949316263198853e-01
-1.308621615171432495e-01
-1.332243978977203369e-01
-1.949593573808670044e-01
-1.976133584976196289e-01
-1.573319435119628906e-01
-1.776889413595199585e-01
-1.143034026026725769e-01
-6.042801588773727417e-02
-7.243789732456207275e-02
8.836393058300018311e-02
7.195332646369934082e-02
2.050765752792358398e-01
2.344011068344116211e-01
2.648696303367614746e-01
3.124541342258453369e-01
3.190355300903320312e-01
3.223631680011749268e-01
2.741499245166778564e-01
2.241906821727752686e-01
1.781931966543197632e-01
5.031216517090797424e-02
-1.440018117427825928e-01
-1.941816657781600952e-01
-2.377126365900039673e-01
-2.100447267293930054e-01
-2.351490408182144165e-01
-2.029113173484802246e-01
-1.053444892168045044e-01
1.895801862701773643e-03
-9.422270953655242920e-02
-2.684646099805831909e-02
9.299299120903015137e-02
1.705325394868850708e-01
1.519065946340560913e-01
1.659890711307525635e-01
1.721290647983551025e-01
1.352869272232055664e-01
1.413192301988601685e-01
8.812817186117172241e-02
5.448788031935691833e-02
9.200645610690116882e-03
4.124964401125907898e-02
-1.354190427809953690e-02
-4.944572970271110535e-02
-7.160523533821105957e-02
-2.644884586334228516e-02
-5.678010638803243637e-03
-7.976457709446549416e-06
-3.273422829806804657e-03
-7.301804143935441971e-03
8.256707340478897095e-03
7.709933561272919178e-04
2.068829257041215897e-03
9.930732194334268570e-04
1.176658179610967636e-02
2.013009507209062576e-03
5.659181624650955200e-03
1.577005349099636078e-02
1.103021390736103058e-02
1.313371397554874420e-02
1.225732173770666122e-02
7.415425498038530350e-03
1.258148904889822006e-02
2.583051566034555435e-03
-5.362017080187797546e-03
-2.575971302576363087e-04
3.860092489048838615e-03
2.477077534422278404e-03
-8.443213067948818207e-03
-6.499335635453462601e-03
-4.137800075113773346e-03
-5.363531410694122314e-03
-5.135378800332546234e-03
-1.007447950541973114e-02
-2.896196674555540085e-03
-1.081565674394369125e-02
-9.657276794314384460e-03
-3.970868885517120361e-03
-7.178093655966222286e-04
-8.077161386609077454e-03
-8.007327094674110413e-03
2.298589423298835754e-02
-1.207014359533786774e-02
-8.976997807621955872e-03
3.389150835573673248e-03
2.321828715503215790e-02
5.474202800542116165e-03
2.577340789139270782e-02
1.813014224171638489e-02
1.168650388717651367e-02
2.558179758489131927e-02
2.406704612076282501e-02
2.842789888381958008e-02
9.131908882409334183e-04
1.885997317731380463e-02
1.822951436042785645e-02
1.980950497090816498e-02
1.096803229302167892e-02
9.873499162495136261e-03
6.466603837907314301e-03
-2.122833859175443649e-03
-1.927636098116636276e-03
-7.512595038861036301e-04
1.072992663830518723e-02
8.105535991489887238e-03
8.260936476290225983e-03
2.284242771565914154e-03
3.687785007059574127e-03
-2.396680880337953568e-03
3.914135508239269257e-03
4.876391496509313583e-03
7.551076821982860565e-03
8.556718938052654266e-03
6.940010935068130493e-03
5.075305700302124023e-03
7.595020812004804611e-03
5.327860824763774872e-03
4.828098230063915253e-03
7.843760773539543152e-03
2.826976357027888298e-03
1.938140834681689739e-03
4.715649411082267761e-03
4.053231794387102127e-03
3.286423394456505775e-03
2.435490489006042480e-03
5.786668509244918823e-03
4.047534894198179245e-03
3.576814429834485054e-03
3.510016947984695435e-03
2.711608540266752243e-03
2.412413712590932846e-03
4.434866830706596375e-03
4.709271248430013657e-03
3.618063870817422867e-03
2.013847231864929199e-03
-2.275096485391259193e-03
1.182065927423536777e-03
3.478372236713767052e-03
3.166137612424790859e-04
1.649223500862717628e-03
4.178236704319715500e-04
3.871233668178319931e-03
-4.182856529951095581e-03
-1.032372820191085339e-03
9.397482499480247498e-04
-2.426239661872386932e-03
-6.256873020902276039e-04
-2.129962667822837830e-03
1.897875335998833179e-03
1.123989350162446499e-03
-3.500410122796893120e-03
-2.177787013351917267e-03
8.507698075845837593e-04
-1.816060626879334450e-03
-4.078213591128587723e-03
-2.053097588941454887e-03
-2.744618977885693312e-04
2.010338241234421730e-03
1.637848909012973309e-04
-2.103800885379314423e-03
-3.529757726937532425e-03
-2.516363514587283134e-03
-3.755525685846805573e-03
-5.137705709785223007e-03
-6.245727185159921646e-03
-7.297738920897245407e-03
-5.306513048708438873e-03
-2.276867860928177834e-03
-4.964959807693958282e-03
-3.354707732796669006e-03
-3.673926228657364845e-03
-3.234720323234796524e-03
-6.033909041434526443e-03
-4.852175712585449219e-03
-6.575372070074081421e-03
-7.567132823169231415e-03
-2.522248309105634689e-03
-2.322900807484984398e-03
-5.468321032822132111e-03
-3.215091302990913391e-03
-3.977966494858264923e-03
-8.678336627781391144e-03
-4.802136216312646866e-03
-6.731191650032997131e-03
-7.277482189238071442e-03
-7.592272479087114334e-03
-8.968943729996681213e-03
-7.659416645765304565e-03
-6.322653498500585556e-03
-4.383697174489498138e-03
-8.577317930757999420e-03
-5.463476758450269699e-03
-5.177243147045373917e-03
-2.228902187198400497e-03
-3.910337574779987335e-03
-5.184725392609834671e-03
-3.191505558788776398e-03
-6.717604584991931915e-03
-7.554457988590002060e-03
-5.129301454871892929e-03
-6.407835986465215683e-03
-9.527364745736122131e-03
-6.979671306908130646e-03
-9.695693850517272949e-03
-1.169315259903669357e-02
-4.509343765676021576e-03
-7.948355749249458313e-03
-6.671037059277296066e-03
-5.893144756555557251e-03
-6.469446700066328049e-03
-1.012752391397953033e-02
-1.010243780910968781e-02
-7.913754321634769440e-03
-9.048542939126491547e-03
-1.226151734590530396e-02
-1.544455904513597488e-02
-1.278371550142765045e-02
-1.170192286372184753e-02
-1.249114051461219788e-02
-1.436991803348064423e-02
-1.154280081391334534e-02
-1.379196811467409134e-02
-9.309231303632259369e-03
-1.195055805146694183e-02
-7.635187823325395584e-03
-1.347354985773563385e-02
-1.296101789921522141e-02
-1.821709237992763519e-02
-1.098291203379631042e-02
-1.502649113535881042e-02
-2.727852016687393188e-02
-3.302915394306182861e-02
-2.286484278738498688e-02
-3.943664953112602234e-02
-3.460469469428062439e-02
-4.695597663521766663e-02
-3.351562842726707458e-02
-4.338338598608970642e-02
-1.927267876453697681e-04
1.360762398689985275e-02
1.695802249014377594e-02
2.858259947970509529e-03
4.330684617161750793e-02
5.607916414737701416e-02
5.075877159833908081e-02
7.274271547794342041e-02
5.040502920746803284e-02
7.120182365179061890e-02
6.576010584831237793e-02
4.864796251058578491e-02
1.175110600888729095e-02
-2.817450463771820068e-02
-1.591160334646701813e-02
-3.121581859886646271e-03
-5.529811233282089233e-02
-7.299597561359405518e-02
-7.028239220380783081e-02
-6.445308029651641846e-02
-5.646644160151481628e-02
-2.278332971036434174e-02
-4.221819341182708740e-02
-6.495805084705352783e-02
-1.329636760056018829e-02
6.392361223697662354e-02
-1.745023764669895172e-03
2.364440634846687317e-02
3.623515367507934570e-02
7.731352746486663818e-02
6.618165969848632812e-02
7.478250563144683838e-02
7.111254334449768066e-02
4.643497988581657410e-02
5.055483430624008179e-02
5.880190059542655945e-02
4.543316364288330078e-02
-1.126997265964746475e-02
-1.021131873130798340e-02
-3.580818697810173035e-02
-5.859908834099769592e-02
-6.811887025833129883e-02
-9.322208911180496216e-02
-1.419494450092315674e-01
-1.441911756992340088e-01
-1.543610095977783203e-01
-1.875354051589965820e-01
-1.637290120124816895e-01
-1.184047386050224304e-01
-2.056099325418472290e-01
-1.265020966529846191e-01
-3.035222366452217102e-02
1.838759332895278931e-02
9.277456253767013550e-02
9.686637669801712036e-02
2.571495771408081055e-01
1.947477906942367554e-01
3.808899223804473877e-01
3.586823046207427979e-01
3.151698112487792969e-01
3.661313056945800781e-01
2.639309763908386230e-01
2.313658297061920166e-01
1.044026389718055725e-01
-1.016541942954063416e-01
-2.186597883701324463e-01
-1.557188630104064941e-01
-2.688197493553161621e-01
-2.037194371223449707e-01
-2.119074463844299316e-01
-1.139084100723266602e-01
-1.024928092956542969e-01
2.025688998401165009e-02
1.390695758163928986e-02
5.528447404503822327e-02
1.212738007307052612e-01
1.296169161796569824e-01
1.512219160795211792e-01
1.410813331604003906e-01
1.635240316390991211e-01
1.137324497103691101e-01
1.350302994251251221e-01
4.481966048479080200e-02
5.376650393009185791e-02
6.258402019739151001e-03
-3.259118273854255676e-02
-8.609821647405624390e-02
-5.874641984701156616e-02
3.990411758422851562e-03
9.026244282722473145e-03
3.806252207141369581e-04
1.066563185304403305e-02
8.110078051686286926e-03
9.517581202089786530e-03
3.414965700358152390e-03
-8.229757659137248993e-03
5.431009456515312195e-03
6.005724892020225525e-03
5.010917317122220993e-03
-5.445516202598810196e-03
-4.206729121506214142e-03
-1.718806684948503971e-03
-3.828777698799967766e-03
-4.214842338114976883e-03
-1.653397455811500549e-03
-2.234354324173182249e-04
-9.553065756335854530e-04
-2.148138009943068027e-04
2.399001969024538994e-04
3.236380871385335922e-03
-1.322247437201440334e-03
-6.323270499706268311e-03
4.813868552446365356e-03
5.878269672393798828e-03
2.791938371956348419e-03
-6.204711273312568665e-03
-1.950068632140755653e-03
-4.193719942122697830e-03
-4.158021882176399231e-03
-8.202123455703258514e-03
9.112904081121087074e-05
1.737441984005272388e-03
-2.979150600731372833e-02
-2.091293921694159508e-03
-1.480655372142791748e-02
-1.767912134528160095e-02
-1.075513288378715515e-02
1.542795263230800629e-02
1.445202971808612347e-03
2.891816802730318159e-05
2.909686043858528137e-02
2.808795683085918427e-02
1.736308634281158447e-02
1.330840867012739182e-02
3.643942624330520630e-02
2.621461451053619385e-02
3.916602581739425659e-02
3.763270005583763123e-02
2.269109711050987244e-02
1.485573779791593552e-02
1.281882170587778091e-03
-8.077417500317096710e-03
-1.572191528975963593e-02
6.502319592982530594e-04
5.063434131443500519e-03
8.500177413225173950e-03
1.404014998115599155e-03
1.106026489287614822e-02
5.981337744742631912e-03
3.940682858228683472e-03
2.379785291850566864e-03
5.774634191766381264e-04
5.083439871668815613e-03
5.230625160038471222e-03
1.158321741968393326e-02
1.103387214243412018e-02
9.429210796952247620e-03
4.489489831030368805e-03
2.684380160644650459e-03
4.234064836055040359e-03
8.394299075007438660e-03
4.296950530260801315e-03
3.199123777449131012e-03
3.337962087243795395e-03
1.710240263491868973e-03
2.950792433694005013e-03
4.999697208404541016e-03
5.907359998673200607e-03
3.680005203932523727e-03
4.812406841665506363e-03
3.927763085812330246e-03
5.078067071735858917e-03
4.823180381208658218e-03
2.501927316188812256e-03
1.525411149486899376e-03
2.974980976432561874e-03
-3.963027265854179859e-04
5.576015682891011238e-04
-2.562660956755280495e-03
-7.261952850967645645e-05
6.265002884902060032e-04
-9.166985983029007912e-04
8.907044539228081703e-04
-2.291658194735646248e-03
-4.798342124558985233e-04
2.645541680976748466e-04
1.798885874450206757e-03
2.714444650337100029e-03
1.323632197454571724e-03
6.498447619378566742e-04
9.589968249201774597e-04
2.336161443963646889e-03
1.906772260554134846e-03
-3.088612342253327370e-03
-4.125681240111589432e-03
-3.870410379022359848e-03
-2.281333785504102707e-03
-4.505185410380363464e-03
-3.442557062953710556e-03
-5.042282864451408386e-03
-3.454445395618677139e-03
-5.554377101361751556e-03
-5.524252075701951981e-03
-2.505356911569833755e-03
-3.968492150306701660e-03
-3.076888620853424072e-03
-3.829143010079860687e-03
-3.441539593040943146e-03
-4.542835056781768799e-03
-3.230245783925056458e-03
-5.489392206072807312e-03
-2.198189496994018555e-03
-3.031623782590031624e-03
-5.956949666142463684e-03
-3.944598138332366943e-03
-5.492005031555891037e-03
-4.363014828413724899e-03
-3.360809059813618660e-03
-4.680201411247253418e-03
-4.550389945507049561e-03
-5.766284652054309845e-03
-4.267764743417501450e-03
-5.387559533119201660e-03
-4.299171734601259232e-03
-3.148504300042986870e-03
-9.744572453200817108e-04
-1.253056339919567108e-03
-2.165347337722778320e-03
-3.691882127895951271e-03
-4.319575149565935135e-03
-2.630994422361254692e-03
-4.961654078215360641e-03
-1.925897784531116486e-03
-7.157145533710718155e-03
-6.425218656659126282e-03
-8.310830220580101013e-03
-6.707406602799892426e-03
-7.505174726247787476e-03
-6.067338399589061737e-03
-5.879861768335103989e-03
-9.217853657901287079e-03
-6.208104081451892853e-03
-4.070063587278127670e-03
-6.515822373330593109e-03
-4.660373087972402573e-03
-7.392401341348886490e-03
-7.787147071212530136e-03
-8.045887574553489685e-03
-6.771692540496587753e-03
-8.017528802156448364e-03
-5.367186386138200760e-03
-7.001106161624193192e-03
-8.082163520157337189e-03
-8.441102690994739532e-03
-9.683434851467609406e-03
-8.771796710789203644e-03
-1.056066807359457016e-02
-8.789947256445884705e-03
-1.192632131278514862e-02
-1.114150509238243103e-02
-1.010783389210700989e-02
-1.388428919017314911e-02
-1.054967381060123444e-02
-8.858366869390010834e-03
-9.924583137035369873e-03
-1.027498301118612289e-02
-1.246872730553150177e-02
-8.347454480826854706e-03
-7.891047745943069458e-03
-6.189785432070493698e-03
-9.829624556005001068e-03
-1.395131647586822510e-02
-1.408940926194190979e-02
-1.586773060262203217e-02
-1.427542697638273239e-02
-2.323449216783046722e-02
-3.681899234652519226e-02
-4.133556783199310303e-02
-2.525374107062816620e-02
-3.169229999184608459e-02
-3.965905308723449707e-02
-3.821912407875061035e-02
-3.241873532533645630e-02
-8.330681361258029938e-03
-1.508834119886159897e-02
2.772083505988121033e-02
-4.762808326631784439e-03
-5.569524131715297699e-03
5.582127347588539124e-02
8.437888324260711670e-02
5.344827100634574890e-02
4.619102552533149719e-02
9.258500486612319946e-02
7.930387556552886963e-02
4.051422700285911560e-02
4.088579490780830383e-02
1.556705776602029800e-02
-3.132859617471694946e-02
1.400406658649444580e-02
-2.935835719108581543e-02
-7.646701484918594360e-02
-7.983671873807907104e-02
-6.171518191695213318e-02
-4.573865607380867004e-02
6.727665197104215622e-03
-1.976447738707065582e-02
-1.140071637928485870e-02
2.381405979394912720e-02
3.734310343861579895e-02
6.178824231028556824e-02
4.756714776158332825e-02
5.711043998599052429e-02
4.469224438071250916e-02
5.450672283768653870e-02
4.958356916904449463e-02
1.265948056243360043e-03
-3.047204576432704926e-02
-7.188055664300918579e-02
-9.165433049201965332e-02
-1.012206450104713440e-01
-1.801256388425827026e-01
-1.916715204715728760e-01
-2.094993442296981812e-01
-2.305660694837570190e-01
-2.116270363330841064e-01
-1.471130251884460449e-01
-1.568425595760345459e-01
-1.525278687477111816e-01
3.321960195899009705e-02
1.284679472446441650e-01
5.768331140279769897e-02
2.912319004535675049e-01
1.954016685485839844e-01
3.639858663082122803e-01
3.423797786235809326e-01
4.121375381946563721e-01
2.752603590488433838e-01
3.029247820377349854e-01
2.090968787670135498e-01
1.779626756906509399e-01
-1.652214676141738892e-02
-1.675041317939758301e-01
-2.756558060646057129e-01
-2.114660888910293579e-01
-1.654898226261138916e-01
-9.538902342319488525e-02
-1.221453025937080383e-01
-3.280916810035705566e-02
-2.180142514407634735e-02
5.248742643743753433e-03
4.722412675619125366e-02
4.679242148995399475e-02
4.843239858746528625e-02
1.245779991149902344e-01
7.464354485273361206e-02
9.581194818019866943e-02
2.452643401920795441e-02
7.491753250360488892e-02
7.889610715210437775e-04
5.688890814781188965e-02
2.883044630289077759e-02
2.779413200914859772e-02
-5.211599636822938919e-03
1.517660077661275864e-02
-2.492260746657848358e-02
-3.035575151443481445e-02
-1.399329025298357010e-02
-5.919287446886301041e-03
1.881804317235946655e-02
1.614551246166229248e-02
-2.104249084368348122e-03
1.293647568672895432e-02
7.966516539454460144e-03
1.641603186726570129e-03
5.368896760046482086e-03
7.497672922909259796e-04
9.182718582451343536e-03
1.086248364299535751e-02
-1.525165047496557236e-03
-9.900187142193317413e-04
2.267088566441088915e-04
-6.458314601331949234e-04
-7.024361286312341690e-03
-8.062855340540409088e-04
-6.047750939615070820e-04
-4.278040491044521332e-03
-1.894892193377017975e-03
-4.439556505531072617e-03
-1.899957889690995216e-03
-9.150168858468532562e-03
-2.090095169842243195e-02
-8.610223419964313507e-03
-6.419216748327016830e-03
-2.124982886016368866e-02
-2.819020301103591919e-02
1.632658392190933228e-02
-1.927721686661243439e-02
-2.325560338795185089e-02
-2.753159729763865471e-03
3.036816138774156570e-03
-3.216382116079330444e-02
7.070950698107481003e-03
6.079717725515365601e-02
1.842275634407997131e-02
1.665925979614257812e-02
6.411072611808776855e-02
4.811272025108337402e-02
1.461209822446107864e-02
5.607246980071067810e-02
3.250806406140327454e-02
1.714955084025859833e-02
9.199338965117931366e-03
2.936742082238197327e-02
3.828608198091387749e-03
1.673790160566568375e-03
-6.071441341191530228e-03
-4.921291023492813110e-03
7.844783831387758255e-04
4.063737113028764725e-03
-5.169539712369441986e-03
5.441570654511451721e-03
2.237668260931968689e-03
6.867072544991970062e-03
3.513055387884378433e-03
1.712873345240950584e-03
5.901107564568519592e-03
6.898994091898202896e-03
9.226786904036998749e-03
7.037890143692493439e-03
1.051642559468746185e-02
6.971264258027076721e-03
7.556207943707704544e-03
5.692857317626476288e-03
3.296954091638326645e-03
4.999783821403980255e-03
4.108679946511983871e-03
3.747011302039027214e-03
3.074828768149018288e-03
2.686716616153717041e-03
4.215309862047433853e-03
4.382508806884288788e-03
4.376554396003484726e-03
1.727497205138206482e-03
4.400373902171850204e-03
4.803534597158432007e-03
2.770008519291877747e-03
5.694247782230377197e-03
2.326235407963395119e-03
1.899248687550425529e-03
-1.484797685407102108e-04
-1.548728323541581631e-04
5.756132304668426514e-05
-1.310105901211500168e-03
-2.296573715284466743e-03
-2.450521104037761688e-03
-1.709872391074895859e-03
-3.191901836544275284e-03
-4.597547813318669796e-04
-1.203506719321012497e-03
-1.511176698841154575e-03
-8.910918841138482094e-04
-2.184284850955009460e-03
3.855207469314336777e-04
-5.206643836572766304e-04
-2.484176540747284889e-03
-1.058604801073670387e-03
-5.751318531110882759e-04
4.613669298123568296e-04
2.153956331312656403e-03
-8.219230221584439278e-05
4.334307450335472822e-04
-2.744772471487522125e-03
-7.529804715886712074e-04
3.196889883838593960e-04
-2.547044306993484497e-03
-2.654915442690253258e-03
-5.663390038534998894e-04
-3.503735642880201340e-03
-5.565915256738662720e-03
-5.318480078130960464e-03
-3.579338779672980309e-03
-4.282321780920028687e-03
-5.303380079567432404e-03
-3.941475879400968552e-03
-4.903171677142381668e-03
-3.988855052739381790e-03
-1.885085832327604294e-03
-2.533820690587162971e-03
-2.410563640296459198e-03
-3.618787042796611786e-03
-2.687355969101190567e-03
-1.135561615228652954e-03
-2.270217984914779663e-03
-3.474403871223330498e-03
-3.002843353897333145e-03
-2.745255595073103905e-03
-4.919261205941438675e-03
-7.134553510695695877e-03
-5.325390957295894623e-03
-4.505788441747426987e-03
-5.437415093183517456e-03
-5.241008475422859192e-03
-5.900569260120391846e-03
-4.965805448591709137e-03
-3.001624718308448792e-03
-7.880595512688159943e-03
-6.152008660137653351e-03
-5.196298472583293915e-03
-5.413815379142761230e-03
-4.374665208160877228e-03
-3.935086075216531754e-03
-4.782283678650856018e-03
-6.830837111920118332e-03
-7.169786840677261353e-03
-1.076841913163661957e-02
-8.003473281860351562e-03
-8.569630794227123260e-03
-1.026557013392448425e-02
-7.188403047621250153e-03
-1.044776570051908493e-02
-1.098549552261829376e-02
-7.582860533148050308e-03
-1.183004770427942276e-02
-1.051696110516786575e-02
-7.016187068074941635e-03
-9.131399914622306824e-03
-1.085260137915611267e-02
-9.746285155415534973e-03
-8.452439680695533752e-03
-1.107193157076835632e-02
-1.120137888938188553e-02
-1.216745655983686447e-02
-1.066619344055652618e-02
-1.193553861230611801e-02
-1.196033228188753128e-02
-1.377777289599180222e-02
-9.885180741548538208e-03
-1.044320687651634216e-02
-8.714187890291213989e-03
-9.699759073555469513e-03
-6.326179020106792450e-03
-1.320507563650608063e-02
-4.388010129332542419e-03
-1.230925600975751877e-02
-2.173001691699028015e-02
-1.663787476718425751e-02
-5.778202787041664124e-03
-3.578032180666923523e-02
-2.676722593605518341e-02
-2.203259617090225220e-02
-4.195890948176383972e-02
-2.913371659815311432e-02
1.452193874865770340e-02
4.213422536849975586e-03
5.843853112310171127e-03
8.416139753535389900e-04
4.342586174607276917e-02
3.540097549557685852e-02
3.485992550849914551e-02
6.188580021262168884e-02
3.025740943849086761e-02
4.359835758805274963e-02
5.644614249467849731e-02
1.960145495831966400e-02
1.072884909808635712e-02
-1.604687422513961792e-02
-4.749691113829612732e-02
-4.929523542523384094e-02
-3.579284995794296265e-02
-6.016121804714202881e-02
-5.101706460118293762e-02
-5.996514484286308289e-02
-6.381140649318695068e-02
-6.839048117399215698e-02
-3.853289410471916199e-02
-1.465201005339622498e-02
2.226586826145648956e-02
6.601106375455856323e-03
1.363704941468313336e-04
6.723795086145401001e-02
7.846687734127044678e-02
8.646638691425323486e-02
7.657345384359359741e-02
6.483007967472076416e-02
6.280674040317535400e-02
6.886881589889526367e-02
6.447663158178329468e-02
1.753525994718074799e-02
1.286086626350879669e-03
-6.034290045499801636e-02
-6.879150867462158203e-02
-7.154458016157150269e-02
-1.224383041262626648e-01
-1.657759845256805420e-01
-1.702718734741210938e-01
-1.899961084127426147e-01
-1.800503283739089966e-01
-1.665101200342178345e-01
-1.254568397998809814e-01
-2.237219065427780151e-01
-8.034785836935043335e-02
-2.127753384411334991e-02
6.108498200774192810e-02
1.401757746934890747e-01
1.053195744752883911e-01
2.825469076633453369e-01
2.312787920236587524e-01
3.706272244453430176e-01
3.829170167446136475e-01
2.227153778076171875e-01
3.091506659984588623e-01
2.730646133422851562e-01
1.965308487415313721e-01
6.337191909551620483e-02
-1.119996830821037292e-01
-2.547273933887481689e-01
-1.960891336202621460e-01
-1.603924036026000977e-01
-8.446990698575973511e-02
-1.495290100574493408e-01
-7.253922522068023682e-02
-1.090579293668270111e-02
-4.892246052622795105e-02
4.522249102592468262e-02
4.732668399810791016e-02
5.185027420520782471e-02
1.327760666608810425e-01
1.068149507045745850e-01
1.139502525329589844e-01
7.621949166059494019e-02
2.944267168641090393e-02
3.220143914222717285e-02
-8.206384256482124329e-03
1.388129964470863342e-02
1.027539651840925217e-02
-2.602561144158244133e-03
-6.138886790722608566e-03
-9.043994359672069550e-03
-2.193838357925415039e-02
-4.120108671486377716e-03
9.207435883581638336e-03
1.019120402634143829e-02
1.756947953253984451e-03
1.878526294603943825e-03
4.047491587698459625e-03
3.884485689923167229e-03
-9.529581875540316105e-04
6.536593195050954819e-03
3.339363960549235344e-03
5.229295231401920319e-03
1.593742985278367996e-03
1.343222800642251968e-03
6.739770527929067612e-03
3.080863971263170242e-03
-3.199059283360838890e-03
-3.491374664008617401e-03
5.377558059990406036e-03
3.100472968071699142e-04
-2.119113458320498466e-03
-3.030938794836401939e-03
-4.669005516916513443e-03
-6.427119020372629166e-03
-1.273807790130376816e-02
-1.188641879707574844e-02
-6.038713268935680389e-03
-1.045372337102890015e-02
-3.065679408609867096e-02
-1.589974621310830116e-03
-1.817864365875720978e-02
-2.065590023994445801e-02
-1.234106998890638351e-02
1.945212855935096741e-02
2.721844008192420006e-03
6.295565981417894363e-04
3.686622157692909241e-02
1.528951618820428848e-02
3.203687444329261780e-02
2.626177482306957245e-02
5.877849087119102478e-02
2.416321635246276855e-02
4.762898012995719910e-02
2.814856916666030884e-02
2.103414945304393768e-02
-8.044823072850704193e-03
-7.008263375610113144e-03
-3.680523484945297241e-03
-3.387782257050275803e-03
-9.363763965666294098e-03
7.172644603997468948e-03
-2.703446196392178535e-03
4.596583545207977295e-03
-2.068262081593275070e-03
1.222822442650794983e-02
3.255159361287951469e-03
8.034430444240570068e-03
3.382975701242685318e-03
8.555211126804351807e-03
8.418476209044456482e-03
1.107373461127281189e-02
1.080667506903409958e-02
9.072060696780681610e-03
6.905245129019021988e-03
2.497729379683732986e-03
2.267332747578620911e-03
1.338550238870084286e-03
1.512523507699370384e-03
3.011097898706793785e-03
3.673824714496731758e-03
8.305896772071719170e-04
4.119587130844593048e-03
2.256796229630708694e-03
4.106210544705390930e-03
3.118504770100116730e-03
1.401705667376518250e-03
1.400959677994251251e-03
4.540002904832363129e-03
4.941490944474935532e-03
3.892306704074144363e-03
1.765722758136689663e-03
1.580869313329458237e-03
3.284376813098788261e-03
1.804738654755055904e-03
1.340865157544612885e-03
-3.617628826759755611e-04
-1.862794859334826469e-03
1.138574793003499508e-03
-2.275808219565078616e-04
8.343183435499668121e-05
1.987084047868847847e-03
-9.078476577997207642e-04
-3.892842447385191917e-03
-2.402563113719224930e-03
-2.698891330510377884e-03
-3.061069641262292862e-03
-2.066336019197478890e-04
-3.595428424887359142e-04
-2.618765691295266151e-03
-5.057138390839099884e-03
-2.372625749558210373e-03
-7.126182783395051956e-03
7.930484134703874588e-04
-2.962756901979446411e-03
-3.216721583157777786e-03
-3.753114026039838791e-03
-3.716296516358852386e-03
-3.623815951868891716e-03
-1.556370989419519901e-03
-2.213021041825413704e-03
-5.362481344491243362e-03
-4.877260420471429825e-03
-3.773282980546355247e-03
-4.145808517932891846e-03
-1.319829025305807590e-03
-4.757359158247709274e-03
-6.225655786693096161e-03
-7.131783291697502136e-03
-6.438530981540679932e-03
-5.888248793780803680e-03
-4.682231694459915161e-03
-4.515028558671474457e-03
-8.418804965913295746e-03
-1.063699461519718170e-02
-5.688956938683986664e-03
-4.181098192930221558e-03
-5.952889565378427505e-03
-8.344306610524654388e-03
-7.150827441364526749e-03
-7.979494519531726837e-03
-4.807966761291027069e-03
-6.492966786026954651e-03
-6.749926600605249405e-03
-5.894165486097335815e-03
-8.081461302936077118e-03
-8.502122014760971069e-03
-7.340765092521905899e-03
-8.239767514169216156e-03
-7.035342510789632797e-03
-1.070824824273586273e-02
-1.074960175901651382e-02
-1.214930042624473572e-02
-9.417136199772357941e-03
-1.417741458863019943e-02
-1.084708794951438904e-02
-1.170933712273836136e-02
-1.386193465441465378e-02
-1.138552837073802948e-02
-1.161568798124790192e-02
-1.310622319579124451e-02
-1.129585783928632736e-02
-1.370226964354515076e-02
-1.316734310239553452e-02
-1.212077680975198746e-02
-5.315295420587062836e-03
-7.218036800622940063e-03
-2.622299129143357277e-03
-7.707872893661260605e-03
6.982959894230589271e-05
-4.270808305591344833e-03
-3.068736288696527481e-03
-4.778021946549415588e-03
-1.363836228847503662e-02
-1.053585018962621689e-02
-4.725961945950984955e-03
-3.287005797028541565e-02
-2.810876630246639252e-02
-1.881719380617141724e-02
-2.370975352823734283e-02
-4.394620656967163086e-02
-2.551941759884357452e-02
-2.713858336210250854e-02
-3.194093331694602966e-02
-7.257760502398014069e-03
1.589587889611721039e-02
1.224461384117603302e-02
-1.398094370961189270e-02
4.661394655704498291e-02
3.218735009431838989e-02
5.470588058233261108e-02
4.088820889592170715e-02
5.302843078970909119e-02
6.947732716798782349e-02
4.072330519556999207e-02
5.370917543768882751e-02
3.951928019523620605e-02
1.220042444765567780e-02
-5.370046477764844894e-03
-7.991679944097995758e-03
-6.694201380014419556e-02
-7.722038030624389648e-02
-6.608381867408752441e-02
-9.233043342828750610e-02
-9.873463213443756104e-02
-7.748173177242279053e-02
-1.083613261580467224e-01
-7.660443335771560669e-02
-1.428921893239021301e-02
-5.576194077730178833e-02
-2.979054860770702362e-02
-6.953487172722816467e-03
4.025933519005775452e-02
4.885205253958702087e-02
1.140477657318115234e-01
8.059541881084442139e-02
9.083303064107894897e-02
1.587177962064743042e-01
1.738405078649520874e-01
1.256409138441085815e-01
9.853301942348480225e-02
9.442753344774246216e-02
3.282604739069938660e-02
2.904840931296348572e-02
-2.052943035960197449e-02
-1.236375793814659119e-01
-1.433275192975997925e-01
-1.270084232091903687e-01
-1.901150047779083252e-01
-2.050633132457733154e-01
-2.396624386310577393e-01
-2.091538310050964355e-01
-1.744792610406875610e-01
-1.198880746960639954e-01
-1.238021180033683777e-01
-7.169443368911743164e-02
-8.360772579908370972e-02
1.091384738683700562e-01
1.681948900222778320e-01
1.651546955108642578e-01
2.758088111877441406e-01
2.368129044771194458e-01
4.111256301403045654e-01
2.933206856250762939e-01
3.056634962558746338e-01
2.168661803007125854e-01
1.722649037837982178e-01
9.469192475080490112e-02
7.387502118945121765e-03
-1.274770200252532959e-01
-1.885111629962921143e-01
-1.758446246385574341e-01
-1.247656270861625671e-01
-6.397511810064315796e-02
-4.078587889671325684e-02
-2.998621389269828796e-02
2.882554382085800171e-02
-3.879343857988715172e-03
1.933294162154197693e-02
3.348897770047187805e-02
7.679703086614608765e-02
4.178879410028457642e-02
6.110462173819541931e-02
2.131016179919242859e-02
2.029051259160041809e-02
-1.385172945447266102e-03
7.549687754362821579e-03
1.435530651360750198e-02
-1.698109699646010995e-04
1.072771847248077393e-02
1.393286231905221939e-02
-3.747492562979459763e-03
2.995893359184265137e-03
8.022430352866649628e-03
2.355614677071571350e-03
6.084094289690256119e-03
2.603357657790184021e-03
6.121019367128610611e-03
5.618212744593620300e-03
6.054155994206666946e-03
7.322530262172222137e-03
5.542192142456769943e-03
5.545071326196193695e-03
2.061112318187952042e-03
2.640265040099620819e-03
2.863255562260746956e-03
1.429228577762842178e-03
-3.699695225805044174e-04
-3.723404370248317719e-04
2.804761985316872597e-03
-2.678286400623619556e-04
1.260677468962967396e-03
-2.369496272876858711e-03
-1.026273239403963089e-03
-1.600405434146523476e-03
-1.477124169468879700e-04
9.737066284287720919e-05
-1.901116105727851391e-03
-4.691520705819129944e-03
-2.129037631675601006e-03
4.734084010124206543e-03
-4.763746168464422226e-03
-4.530947771854698658e-04
-3.056360175833106041e-03
9.749566204845905304e-03
-5.275747273117303848e-03
9.547769092023372650e-03
4.186654929071664810e-03
1.292719785124063492e-02
1.133346091955900192e-02
1.003892719745635986e-02
1.200502552092075348e-02
1.851153210736811161e-03
2.145291306078433990e-02
1.272566057741641998e-02
1.948207058012485504e-02
1.004461292177438736e-02
1.287021860480308533e-02
9.458279237151145935e-03
9.221695363521575928e-03
1.255671260878443718e-03
3.618263639509677887e-03
7.855361327528953552e-03
3.668628167361021042e-03
1.718549290671944618e-03
2.149923704564571381e-03
3.225492313504219055e-03
5.426503717899322510e-03
5.280455574393272400e-03
5.550883710384368896e-03
4.617404658347368240e-03
2.890369854867458344e-03
2.945724409073591232e-03
8.014208870008587837e-04
4.103109240531921387e-03
2.334132324904203415e-03
7.664646836929023266e-04
7.785423658788204193e-04
1.123362220823764801e-03
-9.791846969164907932e-05
-1.799578312784433365e-04
-9.623417863622307777e-04
-2.851391676813364029e-03
-6.539974710904061794e-04
1.590506290085613728e-04
-4.400900797918438911e-05
7.301863515749573708e-04
1.112441765144467354e-03
-2.246488002128899097e-04
8.289040415547788143e-04
1.873793662525713444e-03
1.371540711261332035e-03
9.728728909976780415e-04
4.642462008632719517e-04
1.238519907929003239e-03
2.194173168390989304e-03
2.032853895798325539e-03
3.414329141378402710e-03
2.855227794498205185e-03
1.541280653327703476e-05
-5.890097003430128098e-03
-1.897885813377797604e-04
-2.186646452173590660e-03
2.119523473083972931e-03
1.910110237076878548e-03
-3.111596452072262764e-04
-2.402524929493665695e-03
-2.525338204577565193e-03
-2.647164277732372284e-03
-2.883943729102611542e-03
-1.656989217735826969e-03
6.916708080098032951e-04
-7.709899800829589367e-04
-2.376988064497709274e-03
-3.566229250282049179e-03
-2.772273495793342590e-03
-1.893089734949171543e-03
-6.250938167795538902e-05
-2.701350487768650055e-03
6.791666382923722267e-04
-2.424620790407061577e-03
-2.441773191094398499e-03
-4.065509885549545288e-03
-4.191557411104440689e-03
2.921617589890956879e-03
-1.630766200833022594e-03
-5.894755944609642029e-03
-4.210823215544223785e-03
-6.595630198717117310e-03
-1.001317705959081650e-02
-9.688626974821090698e-03
-5.263851955533027649e-03
-5.577731411904096603e-03
-8.482002653181552887e-03
-7.482804358005523682e-03
-7.881651632487773895e-03
-7.344895973801612854e-03
-8.339553140103816986e-03
-9.822601452469825745e-03
-9.644007310271263123e-03
-1.032060198485851288e-02
-1.032092794775962830e-02
-7.593162357807159424e-03
-8.768641389906406403e-03
-9.777918457984924316e-03
-1.120089646428823471e-02
-8.810240775346755981e-03
-1.125543750822544098e-02
-7.678286638110876083e-03
-1.075334846973419189e-02
-9.068804793059825897e-03
-1.452160160988569260e-02
-1.000879425555467606e-02
-1.230745483189821243e-02
-7.826531305909156799e-03
-1.047175750136375427e-02
-8.332139812409877777e-03
-6.822674069553613663e-03
-1.371517963707447052e-02
-1.267899200320243835e-02
-1.254229899495840073e-02
-2.654787898063659668e-02
-1.899071596562862396e-02
-1.864838600158691406e-02
-4.306206479668617249e-02
-3.688113763928413391e-02
-3.192147985100746155e-02
-3.564013168215751648e-02
-3.559400886297225952e-02
-2.938956022262573242e-02
-3.039002418518066406e-02
-1.593400351703166962e-02
1.456534583121538162e-02
3.326353803277015686e-02
9.324810467660427094e-03
-2.519205398857593536e-02
6.985260546207427979e-02
7.242319732904434204e-02
5.644414946436882019e-02
6.479898095130920410e-02
5.112634971737861633e-02
4.437751695513725281e-02
3.839806839823722839e-02
4.396070912480354309e-02
3.178062289953231812e-02
-9.343701414763927460e-03
2.264616079628467560e-02
1.438943296670913696e-02
1.785769360139966011e-03
1.055704895406961441e-02
-7.192219607532024384e-03
-1.986053027212619781e-02
-4.263941571116447449e-02
-4.634856805205345154e-02
-5.069730803370475769e-02
-7.005776464939117432e-02
-1.033426374197006226e-01
-1.185621023178100586e-01
-1.300593912601470947e-01
-1.385863870382308960e-01
-1.246529147028923035e-01
-8.183180540800094604e-02
-1.560054123401641846e-01
-1.056566983461380005e-01
-2.904197014868259430e-02
1.489959936589002609e-02
7.098691165447235107e-02
6.382764130830764771e-02
2.118661403656005859e-01
1.564678549766540527e-01
3.024657666683197021e-01
3.003513216972351074e-01
2.395515143871307373e-01
2.695616781711578369e-01
2.002346813678741455e-01
1.558823585510253906e-01
5.839470028877258301e-02
-1.096334829926490784e-01
-1.891875863075256348e-01
-1.518256217241287231e-01
-2.946262657642364502e-01
-2.493599653244018555e-01
-2.507865130901336670e-01
-1.614981591701507568e-01
-1.792757064104080200e-01
-7.135068532079458237e-03
-1.752007007598876953e-02
1.288267783820629120e-03
1.712680608034133911e-01
2.124743759632110596e-01
2.214963734149932861e-01
1.825822889804840088e-01
2.330372035503387451e-01
2.078911513090133667e-01
1.902799010276794434e-01
7.401900738477706909e-02
7.740961760282516479e-02
-4.852592945098876953e-03
-1.404803711920976639e-02
-8.235199749469757080e-02
-1.000676006078720093e-01
-2.411482110619544983e-02
-1.143148285336792469e-03
-4.501133225858211517e-03
1.239076349884271622e-02
-9.059365838766098022e-03
1.638205721974372864e-03
-2.227944321930408478e-03
-1.206330489367246628e-02
-2.149018924683332443e-03
3.694263286888599396e-03
-9.966033976525068283e-04
-1.337396726012229919e-02
-7.802899461239576340e-03
-7.742727757431566715e-04
3.445523325353860855e-03
-1.942007569596171379e-03
4.819807363674044609e-04
3.311281325295567513e-03
1.794617157429456711e-03
2.676377538591623306e-03
1.716590020805597305e-03
2.387700369581580162e-03
-1.659414032474160194e-03
-1.882623182609677315e-03
-1.433310331776738167e-03
1.265068538486957550e-03
2.345917280763387680e-03
-1.873533357866108418e-03
-1.526677515357732773e-03
-3.626239951699972153e-03
-1.473225536756217480e-03
1.456362195312976837e-03
1.347742159850895405e-03
-6.408493965864181519e-03
5.421754438430070877e-03
2.368149347603321075e-03
9.360990487039089203e-03
6.911823526024818420e-03
9.905934333801269531e-03
6.012748461216688156e-03
3.905364079400897026e-03
3.653536085039377213e-03
6.049310322850942612e-03
8.978501893579959869e-03
9.812564589083194733e-03
4.736382979899644852e-03
5.962872877717018127e-03
3.518023062497377396e-03
1.075557549484074116e-03
7.174506317824125290e-03
-8.945158333517611027e-04
5.134917329996824265e-03
-6.466979626566171646e-03
5.597851239144802094e-03
3.394882427528500557e-03
1.078621856868267059e-02
2.806537784636020660e-03
3.945580683648586273e-03
1.071452815085649490e-02
8.472181856632232666e-03
5.767824593931436539e-03
5.684632807970046997e-03
1.318517792969942093e-02
9.793916717171669006e-03
7.629177067428827286e-03
1.678920467384159565e-03
2.822048729285597801e-03
3.488143440335988998e-03
4.247127566486597061e-03
3.805621992796659470e-03
3.163979388773441315e-03
1.906331162899732590e-03
-3.527187509462237358e-04
2.944601234048604965e-03
3.382912371307611465e-03
2.251389902085065842e-03
4.273095168173313141e-03
1.950875623151659966e-03
2.725334838032722473e-03
2.613896213006228209e-04
-1.256502699106931686e-03
-2.271357458084821701e-03
-1.718553481623530388e-03
-3.672144142910838127e-03
-8.501971606165170670e-04
-2.247754950076341629e-03
-1.852073590271174908e-03
-2.652736846357584000e-03
-3.053022082895040512e-03
-4.002518951892852783e-03
-4.211316816508769989e-03
-2.578349318355321884e-03
-2.607237081974744797e-03
-1.209876267239451408e-03
9.881505975499749184e-04
-1.992096193134784698e-03
-1.612081541679799557e-03
-2.344113076105713844e-03
-3.650597762316465378e-03
-2.074841875582933426e-03
-2.464100718498229980e-03
-8.802836528047919273e-04
-1.782268984243273735e-03
-2.209836384281516075e-03
-3.263864200562238693e-03
-6.889181677252054214e-03
-4.115405492484569550e-03
-2.865365939214825630e-03
-1.647741766646504402e-03
-2.949797315523028374e-03
-4.528536461293697357e-03
-5.922191776335239410e-03
-3.142913337796926498e-03
-3.338935552164912224e-03
-6.319172214716672897e-03
-7.586248219013214111e-03
-8.000389672815799713e-03
-3.783882129937410355e-03
-3.760060295462608337e-03
-4.716563038527965546e-03
-4.251169040799140930e-03
-6.770659238100051880e-03
-4.127832595258951187e-03
-4.901072010397911072e-03
-3.746399190276861191e-03
-1.943951006978750229e-03
-4.355970770120620728e-03
-5.084032192826271057e-03
-6.905456073582172394e-03
-8.134121075272560120e-03
-7.696045562624931335e-03
-7.348460145294666290e-03
-7.588459644466638565e-03
-7.391143590211868286e-03
-8.492654189467430115e-03
-7.362404372543096542e-03
-6.187310907989740372e-03
-7.334594149142503738e-03
-8.367476053535938263e-03
-9.181212633848190308e-03
-9.593722410500049591e-03
-8.136726915836334229e-03
-7.688070181757211685e-03
-7.767336908727884293e-03
-1.123705413192510605e-02
-1.086979266256093979e-02
-9.539467282593250275e-03
-1.027072593569755554e-02
-1.444576680660247803e-02
-1.317657716572284698e-02
-1.278261747211217880e-02
-9.258951060473918915e-03
-1.021208427846431732e-02
-7.662355434149503708e-03
-8.470045402646064758e-03
-2.189594553783535957e-03
9.067740757018327713e-04
-4.891261458396911621e-03
-2.741853706538677216e-03
-4.680217243731021881e-03
-9.680422022938728333e-03
-1.796480081975460052e-02
-2.397799864411354065e-02
-1.314070913940668106e-02
-5.711875855922698975e-02
-6.084175407886505127e-02
-2.278374321758747101e-02
-2.259885333478450775e-02
-7.432825863361358643e-02
-8.135516196489334106e-02
-4.497820511460304260e-03
-4.491364583373069763e-02
-2.653514407575130463e-02
3.830287605524063110e-02
-1.658350042998790741e-02
-4.324321821331977844e-02
6.723076850175857544e-02
8.636136353015899658e-02
3.205154836177825928e-02
5.257766321301460266e-02
9.667772054672241211e-02
9.676469117403030396e-02
8.130497485399246216e-02
1.045459434390068054e-01
5.881875380873680115e-02
2.348006702959537506e-02
4.932043701410293579e-02
2.845414541661739349e-02
7.687628734856843948e-03
-3.411446511745452881e-02
-5.587974563241004944e-02
-5.020587891340255737e-02
-8.230241388082504272e-02
-8.942133933305740356e-02
-9.063246846199035645e-02
-1.163407489657402039e-01
-1.369963437318801880e-01
-8.720628917217254639e-02
-8.683887869119644165e-02
-1.479537636041641235e-01
-5.421548336744308472e-02
3.912272863090038300e-03
-1.097572874277830124e-02
5.675164237618446350e-02
8.229401707649230957e-02
1.700041443109512329e-01
1.452221423387527466e-01
2.328989952802658081e-01
2.032180577516555786e-01
1.867955476045608521e-01
1.758401840925216675e-01
1.737531572580337524e-01
8.019553869962692261e-02
3.982519730925559998e-03
-1.072144508361816406e-01
-1.433487832546234131e-01
-2.044771611690521240e-01
-1.990073919296264648e-01
-2.137583941221237183e-01
-2.760373651981353760e-01
-1.895388364791870117e-01
-9.453713148832321167e-02
-1.106174215674400330e-01
-9.557512402534484863e-02
-3.783056885004043579e-02
1.571749746799468994e-01
1.288596540689468384e-01
2.384703904390335083e-01
1.848638653755187988e-01
2.551749944686889648e-01
2.812272608280181885e-01
2.597153484821319580e-01
1.696549654006958008e-01
1.696821600198745728e-01
6.227378174662590027e-02
8.203015476465225220e-02
-2.918881922960281372e-02
-1.140434294939041138e-01
-1.309576332569122314e-01
-1.012117117643356323e-01
-3.571889176964759827e-02
-7.931353524327278137e-03
-1.389474514871835709e-02
2.736049704253673553e-03
-1.029813382774591446e-02
-4.949459806084632874e-03
1.072282716631889343e-02
3.282923251390457153e-03
1.391293294727802277e-02
1.107014063745737076e-02
6.974020507186651230e-03
-8.949195034801959991e-04
2.540253102779388428e-03
7.293431553989648819e-03
2.888433402404189110e-03
1.240652985870838165e-03
3.027115948498249054e-03
7.468157447874546051e-03
8.336405735462903976e-04
-2.917527453973889351e-03
-1.861887285485863686e-03
-1.785486820153892040e-03
-2.838509157299995422e-03
-3.611461259424686432e-03
-6.071069277822971344e-03
-4.341931547969579697e-03
-3.161410102620720863e-03
-6.676322780549526215e-03
-2.339876024052500725e-03
-4.587804432958364487e-03
-1.818005694076418877e-03
-6.256730295717716217e-03
-4.178498871624469757e-03
-4.179040435701608658e-03
-4.589600954204797745e-03
-6.023735739290714264e-03
-8.102840743958950043e-03
-5.260943900793790817e-03
-3.786805085837841034e-03
-5.178329069167375565e-03
-6.060491781681776047e-03
-7.745249662548303604e-03
3.060073126107454300e-03
1.743310131132602692e-03
1.425583288073539734e-02
5.601163487881422043e-03
1.286008302122354507e-02
2.807129407301545143e-03
1.285417843610048294e-02
1.481734216213226318e-02
1.651638373732566833e-02
1.271039061248302460e-02
9.304477833211421967e-03
1.598765328526496887e-02
1.432984019629657269e-03
7.864702492952346802e-03
1.427573850378394127e-03
1.189184188842773438e-02
1.813685230445116758e-06
9.924296289682388306e-03
-6.973460782319307327e-03
-1.830492983572185040e-04
-1.077338028699159622e-02
-9.484526817686855793e-04
1.494110911153256893e-03
5.380394868552684784e-03
1.162579748779535294e-02
1.017441600561141968e-02
1.198209449648857117e-02
7.062198594212532043e-03
8.908158168196678162e-03
3.661755938082933426e-03
7.614605594426393509e-03
5.350146442651748657e-03
4.086022265255451202e-03
2.975678537040948868e-03
5.925545934587717056e-03
1.729859621264040470e-03
1.691754907369613647e-03
-1.233001123182475567e-03
-1.534588402137160301e-03
9.038923308253288269e-04
1.289526000618934631e-03
4.394528921693563461e-03
4.676929209381341934e-03
3.434572834521532059e-03
4.442235222086310387e-04
-2.561294706538319588e-03
-3.553346032276749611e-04
6.493819528259336948e-04
8.394431206397712231e-04
2.733883680775761604e-03
7.265623426064848900e-04
-3.353845095261931419e-04
-1.294407295063138008e-03
1.514354953542351723e-03
-5.187458358705043793e-03
3.643958480097353458e-04
-4.967249464243650436e-03
-4.069905728101730347e-03
-5.032768938690423965e-03
-5.453131161630153656e-03
-5.054418928921222687e-03
-3.407216630876064301e-03
-3.695922903716564178e-03
-5.100524518638849258e-03
-6.923648994415998459e-03
-7.979864254593849182e-03
-3.735684324055910110e-03
-4.643029533326625824e-03
-6.868987344205379486e-03
-7.276901043951511383e-03
-9.311651811003684998e-03
-8.615749888122081757e-03
-6.972868926823139191e-03
-7.789947558194398880e-03
-8.108456619083881378e-03
-6.997355725616216660e-03
-9.525001980364322662e-03
-9.403238072991371155e-03
-1.131560467183589935e-02
-1.050179358571767807e-02
-1.153088361024856567e-02
-1.119640003889799118e-02
-1.056648232042789459e-02
-1.110435649752616882e-02
-9.058794938027858734e-03
-8.273264393210411072e-03
-9.028020314872264862e-03
-7.008788641542196274e-03
-7.648968603461980820e-03
-4.655066411942243576e-03
-8.134184405207633972e-03
-5.082482006400823593e-03
-4.914802499115467072e-03
-3.517128061503171921e-03
1.678804110269993544e-04
3.444321686401963234e-03
-6.792107014916837215e-04
3.614791203290224075e-04
6.349693052470684052e-03
3.790366230532526970e-03
8.449921733699738979e-05
-4.043711349368095398e-03
-1.761279767379164696e-03
-2.471861662343144417e-03
-1.522466540336608887e-03
-1.021006237715482712e-02
-2.239468973129987717e-03
-1.792791113257408142e-02
-2.154590561985969543e-02
-1.048751082271337509e-02
-8.552538231015205383e-03
-3.653911128640174866e-02
-2.471500262618064880e-02
-6.389499176293611526e-03
-4.341718927025794983e-02
-3.367247059941291809e-02
-5.715299630537629128e-04
-2.850300259888172150e-02
-2.842286415398120880e-02
1.862525567412376404e-02
1.171298138797283173e-02
-1.069145393557846546e-03
3.240038082003593445e-02
3.827633708715438843e-02
2.475823834538459778e-02
3.410208225250244141e-02
5.091638863086700439e-02
3.706628829240798950e-02
3.496209532022476196e-02
5.619963631033897400e-02
1.722462847828865051e-02
-3.160839155316352844e-02
-3.196816146373748779e-02
-7.196553796529769897e-02
-1.177038773894309998e-01
-1.149272918701171875e-01
-1.410976052284240723e-01
-1.915950924158096313e-01
-1.721040159463882446e-01
-1.630916297435760498e-01
-1.433898210525512695e-01
-1.548629701137542725e-01
-1.307346951216459274e-02
-4.831922799348831177e-02
6.723237782716751099e-02
1.039028167724609375e-01
2.149483561515808105e-01
2.678675353527069092e-01
2.519484460353851318e-01
2.973220050334930420e-01
2.535482943058013916e-01
2.865542173385620117e-01
1.036105006933212280e-01
1.044169068336486816e-01
7.562921382486820221e-04
-7.435461878776550293e-02
-1.728230565786361694e-01
-1.573029458522796631e-01
-8.620011061429977417e-02
-4.358804225921630859e-02
-6.128182262182235718e-02
-5.174373276531696320e-03
9.953897446393966675e-03
5.324881989508867264e-03
6.563077215105295181e-03
3.523737192153930664e-02
2.394853718578815460e-02
1.985720545053482056e-02
1.524784229695796967e-02
1.316750701516866684e-02
8.218947798013687134e-03
8.601797744631767273e-03
7.087165024131536484e-03
2.702692057937383652e-03
2.772427629679441452e-03
-1.040616538375616074e-03
-2.947432920336723328e-03
-4.504436627030372620e-03
2.051914576441049576e-03
1.992899924516677856e-04
2.292190212756395340e-03
1.214487245306372643e-03
1.489287242293357849e-03
6.790512125007808208e-04
-6.157980533316731453e-04
-7.645518053323030472e-05
1.978843938559293747e-04
-3.324012970551848412e-03
-5.093992222100496292e-04
-9.850010974332690239e-04
-1.644055242650210857e-03
1.609532278962433338e-03
9.358066017739474773e-04
2.687093510758131742e-04
3.293984103947877884e-03
1.315536908805370331e-03
1.886033453047275543e-03
2.602792577818036079e-03
9.702100651338696480e-04
1.369519624859094620e-03
1.734269084408879280e-03
1.650883350521326065e-03
6.737372605130076408e-04
1.957733416929841042e-03
2.169207902625203133e-03
4.012930206954479218e-03
9.728277218528091908e-04
-8.721594931557774544e-04
-5.127598415128886700e-04
-3.347815945744514465e-04
1.087446813471615314e-03
1.541417441330850124e-05
4.648640751838684082e-03
2.145488513633608818e-03
1.480129198171198368e-03
2.211607061326503754e-03
-3.526157699525356293e-03
3.613121341913938522e-03
-6.338289240375161171e-04
5.456119310110807419e-03
8.612290956079959869e-03
8.813189342617988586e-03
6.379783619195222855e-03
-2.168787876144051552e-03
2.809176454320549965e-03
3.768805181607604027e-03
8.781941607594490051e-03
7.900421507656574249e-03
1.277704816311597824e-02
7.800757419317960739e-03
4.490756895393133163e-03
-7.700087153352797031e-04
-1.702355511952191591e-04
2.910557202994823456e-03
2.561097964644432068e-03
1.672523794695734978e-03
5.243895575404167175e-03
2.822234062477946281e-03
1.760232553351670504e-04
7.601873949170112610e-04
-4.709041968453675508e-04
6.849634228274226189e-04
7.331800297833979130e-04
2.313025761395692825e-03
3.034202381968498230e-03
2.600291976705193520e-03
2.742922399193048477e-03
-5.196505226194858551e-03
-2.173525514081120491e-03
-1.174736185930669308e-03
1.928981801029294729e-04
-2.006772905588150024e-03
-4.370122682303190231e-03
-3.471812466159462929e-03
-5.076460074633359909e-03
-3.785556182265281677e-03
-2.371798036620020866e-03
-5.097440909594297409e-03
-5.633032880723476410e-03
-3.359287977218627930e-03
-5.655921995639801025e-03
-1.074017724022269249e-03
-1.498694065958261490e-03
-5.690072663128376007e-03
-5.343307740986347198e-03
-4.939502105116844177e-03
-5.984450690448284149e-03
-5.598407704383134842e-03
-6.513468921184539795e-03
-6.885090842843055725e-03
-6.044880021363496780e-03
-6.388019770383834839e-03
-1.126002520322799683e-02
-6.225015036761760712e-03
-8.077797479927539825e-03
-7.945699617266654968e-03
-6.710866466164588928e-03
-5.581109318882226944e-03
-6.300168577581644058e-03
-1.914739841595292091e-03
-6.421947386115789413e-03
-2.533134538680315018e-03
-5.366031080484390259e-03
-3.964653704315423965e-03
-4.282179288566112518e-03
-4.641574341803789139e-03
-4.442281089723110199e-03
-1.859247568063437939e-03
-1.582469674758613110e-03
-1.820460660383105278e-03
-1.785808359272778034e-03
-1.163113280199468136e-03
-2.016481943428516388e-03
-7.190696196630597115e-04
-4.189051222056150436e-03
-4.308802890591323376e-04
-9.785680100321769714e-03
-9.613497182726860046e-03
-7.516338955610990524e-03
-1.253758091479539871e-02
-8.880694396793842316e-03
-1.242693862877786160e-03
-7.285977248102426529e-03
-7.836172357201576233e-03
-9.506631642580032349e-03
-2.449064515531063080e-03
-5.597148556262254715e-03
-3.611813997849822044e-03
-1.056403503753244877e-03
5.610451567918062210e-03
-9.647373808547854424e-04
-2.022789325565099716e-03
5.130174569785594940e-03
-2.684948733076453209e-03
-2.750744298100471497e-02
-4.516621679067611694e-02
-5.507037043571472168e-02
-4.186332598328590393e-02
-1.020567268133163452e-01
-1.393115818500518799e-01
-1.166674196720123291e-01
-1.078035458922386169e-01
-1.539682298898696899e-01
-9.838429093360900879e-02
-1.147386133670806885e-01
-1.700342893600463867e-01
-5.401168763637542725e-02
7.288435101509094238e-02
1.017662510275840759e-02
8.715713024139404297e-02
1.255319714546203613e-01
2.728676199913024902e-01
2.320385724306106567e-01
3.628728389739990234e-01
2.040078341960906982e-01
2.424313873052597046e-01
1.981614679098129272e-01
1.830903738737106323e-01
4.507726803421974182e-02
-1.015271916985511780e-01
-1.827596575021743774e-01
-1.896679252386093140e-01
-1.293497085571289062e-01
-1.037437394261360168e-01
-1.174349263310432434e-01
-9.434417635202407837e-02
-7.782267779111862183e-02
5.315701663494110107e-02
2.637992054224014282e-02
2.202029712498188019e-02
3.198728337883949280e-02
1.059114038944244385e-01
8.033324778079986572e-02
1.402058452367782593e-01
6.459705531597137451e-02
7.227481901645660400e-02
2.658360823988914490e-02
2.137544751167297363e-02
6.257100030779838562e-03
-1.497071236371994019e-02
-1.641284557990729809e-03
-9.158953092992305756e-03
-1.256104651838541031e-02
6.410876521840691566e-04
-9.175358340144157410e-03
-9.697043336927890778e-03
-1.795397605746984482e-03
5.106518045067787170e-03
2.382782753556966782e-03
-4.180825490038841963e-04
1.247175387106835842e-03
1.367545686662197113e-03
2.775307977572083473e-03
8.819578215479850769e-04
1.266504288651049137e-03
3.310129046440124512e-03
2.574005629867315292e-03
2.395919582340866327e-04
8.514890214428305626e-04
-2.435737696941941977e-04
4.017082974314689636e-04
-1.762298517860472202e-03
1.398088643327355385e-03
3.748869930859655142e-04
3.909585066139698029e-03
2.799032663460820913e-04
3.010560758411884308e-04
-1.331220613792538643e-03
2.769943093881011009e-04
-1.547900377772748470e-03
8.360188803635537624e-04
-9.905967162922024727e-04
1.763066742569208145e-03
9.856297401711344719e-04
9.426464093849062920e-04
-9.293351322412490845e-04
1.666671130806207657e-03
2.360069658607244492e-03
1.630210783332586288e-03
3.133087418973445892e-03
-9.114251588471233845e-04
9.353226050734519958e-03
3.406498581171035767e-03
5.854381248354911804e-03
5.559543147683143616e-03
1.143224351108074188e-02
6.311226170510053635e-03
6.966536398977041245e-03
2.888240385800600052e-03
5.037407390773296356e-03
1.385131012648344040e-02
1.001859270036220551e-02
1.233195699751377106e-02
1.078043319284915924e-02
9.729952551424503326e-03
8.123599924147129059e-03
5.350712221115827560e-03
4.200995899736881256e-03
3.261303063482046127e-03
4.152107052505016327e-03
3.995147999376058578e-03
1.340531511232256889e-03
4.817906767129898071e-03
5.093483254313468933e-03
3.409910947084426880e-03
6.774891517125070095e-04
4.483346827328205109e-03
3.610322484746575356e-03
5.203445907682180405e-03
3.481445834040641785e-03
1.303302124142646790e-03
2.084522973746061325e-03
-4.538856737781316042e-04
2.220446476712822914e-04
-1.899761497043073177e-03
1.072632614523172379e-03
3.676295513287186623e-03
3.272588830441236496e-03
1.167436130344867706e-03
-1.803940511308610439e-03
2.115990268066525459e-03
1.327854581177234650e-03
1.388813485391438007e-03
-1.899467781186103821e-03
8.992444491013884544e-04
1.202238956466317177e-03
1.438592327758669853e-03
-1.273066736757755280e-03
-9.435345418751239777e-04
1.121287641581147909e-04
1.456235186196863651e-04
-1.895198482088744640e-03
-5.572802620008587837e-04
6.534098647534847260e-04
-2.078957390040159225e-03
-4.940018057823181152e-03
-3.959031309932470322e-03
-1.996054314076900482e-03
-3.386917989701032639e-03
-3.006763057783246040e-03
-3.225413151085376740e-03
-1.238758210092782974e-03
-1.821233658120036125e-03
-1.084867632016539574e-03
-2.654133131727576256e-03
-4.062884021550416946e-03
-1.795495045371353626e-04
-1.783058978617191315e-03
-6.714317714795470238e-04
-2.936248667538166046e-03
-3.128710202872753143e-03
-1.562249613925814629e-03
-3.738660365343093872e-03
-4.443821497261524200e-03
-4.999963100999593735e-03
-2.830764744430780411e-03
-3.846433013677597046e-03
-1.961281755939126015e-03
-4.119499586522579193e-03
-4.958067554980516434e-03
-4.048449918627738953e-03
-3.389721736311912537e-03
-2.036748453974723816e-03
-5.352668929845094681e-03
-5.594553425908088684e-03
-4.518434870988130569e-03
-4.402430728077888489e-03
-4.943449050188064575e-03
-5.143736954778432846e-03
-6.398580968379974365e-03
-4.241685848683118820e-03
-2.955539617687463760e-03
-2.699089469388127327e-03
-2.229587873443961143e-03
-1.538414740934967995e-03
-2.834134269505739212e-03
-4.390508867800235748e-03
-5.660969298332929611e-03
-7.318585179746150970e-03
-5.903103854507207870e-03
-4.195858724415302277e-03
-2.886623842641711235e-03
-5.372523795813322067e-03
-4.707061219960451126e-03
-4.548180382698774338e-03
-2.931627677753567696e-03
-4.802119452506303787e-03
-4.393931943923234940e-03
-2.866410417482256889e-03
-3.442283254116773605e-03
-3.199690487235784531e-03
-3.244665684178471565e-03
-2.372664865106344223e-03
-2.774782013148069382e-03
-1.960488501936197281e-03
-2.280816202983260155e-03
-2.097604796290397644e-03
-2.717600669711828232e-03
-3.905699122697114944e-03
-4.174088127911090851e-03
-2.810787642374634743e-03
-3.713325131684541702e-03
-3.136950312182307243e-03
-3.613722277805209160e-03
-2.998275216668844223e-03
-3.970424178987741470e-03
-5.053244531154632568e-03
-6.021589040756225586e-03
-5.867602303624153137e-03
-6.501521915197372437e-03
-9.380503557622432709e-03
-9.031482040882110596e-03
-7.411376573145389557e-03
-7.483331952244043350e-03
-2.589649520814418793e-03
1.725743786664679646e-04
-1.716473838314414024e-03
2.489657606929540634e-03
2.585658570751547813e-03
6.431191228330135345e-03
5.062338430434465408e-03
5.475492216646671295e-03
1.754245138727128506e-03
8.531037718057632446e-03
1.276995753869414330e-03
1.556918432470411062e-04
-5.632002284983173013e-05
-3.189506707713007927e-03
-1.231921836733818054e-02
-7.378364913165569305e-03
-8.022258058190345764e-03
-1.449854578822851181e-02
-1.724221557378768921e-02
5.288373678922653198e-03
-1.637812145054340363e-02
-7.369030732661485672e-03
-4.871405253652483225e-04
-1.361265894956886768e-03
-6.993311922997236252e-03
9.223199449479579926e-03
3.049806458875536919e-03
6.265933625400066376e-03
1.493860408663749695e-02
2.154538966715335846e-02
1.596020720899105072e-02
9.610895067453384399e-03
1.333523355424404144e-02
1.179382111877202988e-02
6.304338108748197556e-03
2.803422277793288231e-03
9.797720704227685928e-04
-3.805963555350899696e-03
-1.339436275884509087e-03
3.705769777297973633e-03
-9.061415679752826691e-03
-7.389119360595941544e-03
-5.933442618697881699e-03
-4.277579020708799362e-03
-6.449646316468715668e-03
3.023961558938026428e-03
-4.714106209576129913e-03
-3.309658030048012733e-03
4.447134560905396938e-04
4.549645818769931793e-03
5.300065036863088608e-03
5.812772549688816071e-03
5.076541565358638763e-03
7.940854877233505249e-03
7.565658539533615112e-03
5.094394087791442871e-03
3.786588786169886589e-03
9.244980756193399429e-04
1.852375338785350323e-03
-6.824614247307181358e-04
5.492271739058196545e-04
-7.009960711002349854e-03
-5.258377175778150558e-03
-2.820122987031936646e-03
2.372235991060733795e-03
-8.605977054685354233e-04
9.200929780490696430e-04
3.210324095562100410e-03
3.837892320007085800e-03
4.406348336488008499e-03
4.598909523338079453e-03
3.958546556532382965e-03
4.737588111311197281e-03
3.361431416124105453e-03
2.991992281749844551e-03
3.695150371640920639e-03
3.507173387333750725e-03
2.141389995813369751e-03
8.642116445116698742e-04
-1.177273923531174660e-03
1.790186506696045399e-04
8.141550933942198753e-04
1.344737363979220390e-03
6.421544239856302738e-04
2.685663639567792416e-04
4.965438274666666985e-04
1.361807691864669323e-03
-3.559276461601257324e-03
-2.028672955930233002e-03
-1.244615297764539719e-03
-1.602749573066830635e-03
-7.948083803057670593e-04
-1.090428326278924942e-03
5.697045708075165749e-04
9.342858102172613144e-04
-4.633380449377000332e-04
-5.251665133982896805e-04
-1.996125327423214912e-03
-3.276070638094097376e-04
-4.433347843587398529e-03
-1.152368495240807533e-04
-1.373285194858908653e-03
2.033764962106943130e-03
-1.185960136353969574e-03
2.278782660141587257e-03
1.119330874644219875e-03
2.377724507823586464e-03
4.026307724416255951e-04
2.715116133913397789e-03
5.606700666248798370e-03
3.243750426918268204e-03
2.452437765896320343e-03
1.761535066179931164e-03
7.199672982096672058e-04
8.148076594807207584e-04
1.693491125479340553e-03
-5.160035798326134682e-04
1.457404112443327904e-03
6.316948565654456615e-04
-4.603905836120247841e-04
-2.843192196451127529e-04
1.811385620385408401e-03
-6.975856376811861992e-04
5.581313162110745907e-04
4.574094782583415508e-04
1.192833879031240940e-03
1.318283146247267723e-03
5.771603318862617016e-04
6.773852510377764702e-04
-7.644667057320475578e-04
-1.616675290279090405e-03
2.339526108698919415e-04
8.331549470312893391e-04
1.257699099369347095e-03
-2.769255079329013824e-04
1.843838719651103020e-03
2.192487940192222595e-03
1.190914190374314785e-03
2.632280346006155014e-03
2.136762021109461784e-03
1.098094740882515907e-03
5.293264403007924557e-04
2.290671458467841148e-03
2.565838862210512161e-03
2.682325430214405060e-03
1.701896078884601593e-03
1.370748504996299744e-03
3.170407377183437347e-03
2.269920194521546364e-03
5.721327615901827812e-04
1.244227518327534199e-03
1.257136464118957520e-03
-1.307614147663116455e-04
1.839456497691571712e-03
7.184931891970336437e-04
-2.870075404644012451e-03
-3.085939679294824600e-03
-8.981155697256326675e-04
-4.800014430657029152e-04
-2.422871766611933708e-03
-3.482749685645103455e-03
2.945284359157085419e-04
2.688226522877812386e-04
-2.086934633553028107e-03
-2.905676839873194695e-03
-4.805243224836885929e-04
-3.518905723467469215e-04
7.351235253736376762e-04
1.822162303142249584e-04
9.459241409786045551e-04
1.841224846430122852e-03
-5.124938325025141239e-04
-5.241469480097293854e-04
-4.753481480292975903e-04
1.666513388045132160e-03
7.103654206730425358e-05
-4.055950557813048363e-05
-6.441823206841945648e-04
-3.034057153854519129e-04
-1.945058116689324379e-03
-1.079903217032551765e-03
-8.345345268025994301e-04
-2.167638158425688744e-03
-1.422839355655014515e-03
-4.084604734089225531e-04
4.667070461437106133e-04
-2.788540441542863846e-03
8.396959165111184120e-04
1.089338911697268486e-03
2.281322609633207321e-03
2.309700706973671913e-03
4.802634939551353455e-03
2.313643693923950195e-03
3.260965750087052584e-04
-7.871449925005435944e-04
8.476820075884461403e-04
3.964442294090986252e-04
-1.068052370101213455e-05
3.745135152712464333e-03
1.793053932487964630e-03
-2.453760243952274323e-04
1.913154730573296547e-03
-4.952201270498335361e-04
1.911642844788730145e-03
-5.574101232923567295e-04
-7.689969497732818127e-04
-8.899695239961147308e-04
3.091855032835155725e-04
-1.078924513421952724e-03
-4.935452016070485115e-04
2.177701098844408989e-03
1.420129206962883472e-03
1.679185894317924976e-03
2.003354718908667564e-03
3.583254525437951088e-03
-7.447507814504206181e-04
2.304190129507333040e-04
1.085484691429883242e-04
8.671976975165307522e-04
1.646898686885833740e-03
2.859575033653527498e-05
4.141277633607387543e-03
2.272276207804679871e-03
1.442008186131715775e-03
4.470757674425840378e-03
1.759074861183762550e-03
1.546799205243587494e-03
2.987520711030811071e-04
3.303523408249020576e-03
2.268554642796516418e-03
7.472405559383332729e-04
1.017615082673728466e-03
-1.593961787875741720e-04
7.485526148229837418e-04
-9.549656533636152744e-05
1.679117907769978046e-03
-3.581725759431719780e-04
1.364989206194877625e-03
2.181106014177203178e-03
8.122588042169809341e-04
1.330833067186176777e-03
1.801913720555603504e-03
-1.589982770383358002e-03
1.830762252211570740e-03
2.157845068722963333e-03
4.125235602259635925e-03
-1.572847831994295120e-04
1.275776186957955360e-03
1.899968134239315987e-03
1.347372774034738541e-03
4.192485357634723186e-04
-3.623410593718290329e-04
4.296524450182914734e-03
1.126472372561693192e-03
2.858898369595408440e-03
3.419285931158810854e-04
1.179297571070492268e-03
1.120897941291332245e-03
2.753520617261528969e-03
1.949955360032618046e-03
5.296172457747161388e-04
2.857479033991694450e-03
2.642491832375526428e-03
3.152573248371481895e-03
2.908624475821852684e-03
3.583919489756226540e-03
2.769303042441606522e-03
2.329264767467975616e-03
3.228391055017709732e-03
2.179924631491303444e-03
2.264823066070675850e-03
2.834907732903957367e-03
1.448939554393291473e-03
-4.127922584302723408e-04
1.430597185390070081e-04
-4.165451100561767817e-04
-1.247252221219241619e-03
-1.696632709354162216e-03
-1.203088206239044666e-03
-1.174734905362129211e-03
-2.016888931393623352e-03
-3.547055530361831188e-04
-7.646923186257481575e-04
-6.645414978265762329e-04
9.062020399142056704e-05
4.788003279827535152e-04
5.013886257074773312e-04
6.653512828052043915e-04
-5.742902867496013641e-04
1.947631244547665119e-03
1.155280275270342827e-03
1.096502237487584352e-04
-8.203315519494935870e-05
1.645500538870692253e-03
1.814465620554983616e-03
2.750298706814646721e-03
2.802002709358930588e-04
7.393362466245889664e-04
6.259826477617025375e-04
3.705104172695428133e-04
6.209976854734122753e-04
5.029810708947479725e-04
6.363214342854917049e-04
-8.222131291404366493e-04
3.027225029654800892e-04
2.068606117973104119e-04
2.145478501915931702e-03
1.381330657750368118e-03
8.599144057370722294e-04
6.336587830446660519e-04
9.857276454567909241e-04
5.450424505397677422e-04
4.790458770003169775e-04
4.511612933129072189e-04
-7.721268339082598686e-04
-1.757922349497675896e-03
5.586414481513202190e-04
-1.387878437526524067e-04
3.652763552963733673e-04
1.058443798683583736e-03
9.312501642853021622e-04
1.861997996456921101e-03
-8.882908150553703308e-04
9.270758018828928471e-04
-3.364371368661522865e-04
2.410980523563921452e-04
1.673331949859857559e-03
9.644632809795439243e-04
3.844872990157455206e-04
-1.245730789378285408e-03
-1.692184945568442345e-03
-2.553690690547227859e-03
4.923320375382900238e-04
1.048696693032979965e-03
-5.523605505004525185e-04
2.622744068503379822e-05
-7.255767704918980598e-04
-1.503265229985117912e-05
-3.839936107397079468e-04
-1.777427387423813343e-04
1.773294061422348022e-04
2.783153904601931572e-04
7.898726034909486771e-04
1.512699993327260017e-03
9.666106197983026505e-04
1.834198774304240942e-04
6.622367072850465775e-05
1.351822866126894951e-03
8.292866405099630356e-04
7.499227067455649376e-04
-7.731167133897542953e-04
-5.155151011422276497e-04
-1.153334858827292919e-03
2.728494582697749138e-03
-7.985263364389538765e-04
1.935184234753251076e-03
2.117711701430380344e-04
1.936538959853351116e-03
3.146392991766333580e-04
-1.279541524127125740e-03
-2.107270527631044388e-03
-2.120431978255510330e-03
1.561409095302224159e-03
1.613946165889501572e-03
3.759493120014667511e-05
-4.262893926352262497e-04
-2.813215134665369987e-03
-1.985437003895640373e-03
1.098341424949467182e-03
-5.986547330394387245e-04
-2.289965050294995308e-03
-2.840551082044839859e-03
-1.130452845245599747e-03
-1.147589879110455513e-03
-2.240137895569205284e-03
-1.617598463781177998e-03
-2.408060943707823753e-03
-1.133581507019698620e-03
3.437268314883112907e-04
-1.553889014758169651e-03
-2.128937048837542534e-03
-1.793796778656542301e-03
2.499161055311560631e-04
8.574339444749057293e-04
1.879335613921284676e-04
8.196757407858967781e-04
1.542945974506437778e-03
3.370353952050209045e-04
3.739718813449144363e-04
-1.097471918910741806e-03
5.519159021787345409e-04
3.568379906937479973e-04
-8.734673028811812401e-04
-1.534864772111177444e-03
-1.602717908099293709e-03
-1.119192223995923996e-03
-1.369434525258839130e-03
7.201203843578696251e-04
-2.605188637971878052e-04
1.050627790391445160e-03
-5.309795960783958435e-05
6.869646022096276283e-04
-1.063420902937650681e-03
4.130485467612743378e-03
2.705433871597051620e-03
2.830994082614779472e-03
3.008013591170310974e-03
2.744423225522041321e-03
4.450890701264142990e-04
1.695379847660660744e-03
7.903069490566849709e-04
-6.929431692697107792e-04
-2.793791471049189568e-03
-1.738272607326507568e-03
-2.776360604912042618e-03
-1.802094047889113426e-03
-4.034217447042465210e-03
-4.148865118622779846e-03
-4.212808329612016678e-03
-3.787466092035174370e-03
-3.110050689429044724e-03
-5.301927682012319565e-03
-3.157218219712376595e-03
-3.152739256620407104e-03
-2.455468755215406418e-03
-2.418453572317957878e-03
-9.602540521882474422e-04
5.084865260869264603e-04
-6.202441873028874397e-04
7.510835421271622181e-04
3.166608512401580811e-04
1.371526159346103668e-03
8.310333359986543655e-04
-6.974021671339869499e-04
-1.252393587492406368e-03
-3.253409871831536293e-03
-7.229798211483284831e-05
1.054542604833841324e-03
-1.390147372148931026e-04
-1.732601784169673920e-03
-2.969858935102820396e-03
-2.109936904162168503e-03
6.436338298954069614e-05
-1.133422716520726681e-03
-2.264686860144138336e-03
1.724321482470259070e-04
-3.473347751423716545e-04
-5.787510308437049389e-04
-1.930908532813191414e-03
-1.547246472910046577e-03
-1.723380526527762413e-03
3.043632750632241368e-05
3.266829880885779858e-04
2.521308779250830412e-04
-4.768265644088387489e-04
-9.823563741520047188e-04
-1.130309072323143482e-03
-9.290599264204502106e-04
4.389543319121003151e-04
7.542995736002922058e-04
-4.887607065029442310e-04
3.417563566472381353e-04
1.008984399959445000e-04
6.635331083089113235e-04
-5.613733083009719849e-04
4.615155048668384552e-04
1.023527584038674831e-03
-1.158822211436927319e-03
-6.588430842384696007e-04
1.434907317161560059e-04
-6.498041329905390739e-04
-9.802242275327444077e-04
-1.466299290768802166e-03
-1.086367294192314148e-03
6.908201612532138824e-06
-1.250067958608269691e-03
-7.582035614177584648e-04
-6.144731305539608002e-04
-9.203224326483905315e-04
-3.964432980865240097e-04
-1.102881738916039467e-03
-1.167025067843496799e-03
-1.752838841639459133e-03
-5.460253451019525528e-04
3.020942676812410355e-04
-8.681167382746934891e-04
-8.617325220257043839e-04
-4.548013093881309032e-04
-2.891779877245426178e-05
-1.190002076327800751e-04
3.326139994896948338e-04
1.451291609555482864e-05
7.194430218078196049e-04
-1.058453635778278112e-04
5.719158216379582882e-04
1.078473054803907871e-03
1.217430690303444862e-03
7.097963243722915649e-04
1.829265384003520012e-04
5.569998756982386112e-04
-8.191450033336877823e-04
-8.880679961293935776e-04
-5.958217661827802658e-04
8.172011584974825382e-04
4.211229388602077961e-04
-5.847658612765371799e-04
-2.144323516404256225e-04
4.676286480389535427e-04
-6.389355985447764397e-04
-2.640214515849947929e-04
-1.623151765670627356e-04
-1.541312783956527710e-03
-4.237322427798062563e-04
-2.925109874922782183e-04
-1.358658308163285255e-03
-1.036616158671677113e-03
9.805557783693075180e-04
3.325634752400219440e-04
9.118859888985753059e-04
-1.073827152140438557e-04
-3.255101037211716175e-04
-8.548016194254159927e-05
6.321934051811695099e-04
1.218727440573275089e-03
7.973326719366014004e-04
