1.692092716693878174e-01
-1.059240326285362244e-01
-1.655383408069610596e-01
-1.691702753305435181e-01
-1.601272523403167725e-01
-1.585150063037872314e-01
-1.714857965707778931e-01
-1.868642866611480713e-01
-1.879363805055618286e-01
-1.837177276611328125e-01
-1.847942769527435303e-01
-1.684070080518722534e-01
-1.138330623507499695e-01
-4.885846376419067383e-02
-2.253869548439979553e-02
5.282131955027580261e-02
6.192288547754287720e-02
8.718249201774597168e-02
6.926478445529937744e-02
5.099081248044967651e-02
2.861305326223373413e-02
9.193062782287597656e-03
-7.349274307489395142e-02
-1.112917065620422363e-01
-1.057831421494483948e-01
-1.637463867664337158e-01
-1.832609921693801880e-01
-1.892214119434356689e-01
-1.773864328861236572e-01
-1.940191537141799927e-01
-1.954313218593597412e-01
-1.966427415609359741e-01
-1.953262388706207275e-01
-1.957450807094573975e-01
-1.966100633144378662e-01
-1.977653503417968750e-01
-1.967743039131164551e-01
-1.969549953937530518e-01
-1.981717348098754883e-01
-1.578517556190490723e-01
-7.677681744098663330e-02
-1.953108757734298706e-01
2.280661277472972870e-02
9.982714802026748657e-02
8.594606816768646240e-02
1.171455830335617065e-01
1.110537722706794739e-01
9.516785293817520142e-02
8.428236097097396851e-02
7.855391502380371094e-02
4.154755920171737671e-02
-1.420423388481140137e-01
-1.394771337509155273e-01
-1.684385091066360474e-01
-1.954740434885025024e-01
-1.836338192224502563e-01
-1.886637657880783081e-01
-1.941244304180145264e-01
-1.919710338115692139e-01
-1.939723044633865356e-01
-1.930288225412368774e-01
-1.900900602340698242e-01
-1.905584186315536499e-01
-1.937275528907775879e-01
-1.915823221206665039e-01
-1.924704015254974365e-01
-1.832552254199981689e-01
-1.905015707015991211e-01
-1.887328773736953735e-01
-1.920583248138427734e-01
-1.810776889324188232e-01
-1.873186677694320679e-01
-1.541515737771987915e-01
-1.724617928266525269e-01
-1.848452091217041016e-01
-1.783621609210968018e-01
-1.667470186948776245e-01
-1.850854158401489258e-01
-1.861240118741989136e-01
-1.850269138813018799e-01
-1.824550330638885498e-01
-1.908093243837356567e-01
-1.919042170047760010e-01
-1.881049424409866333e-01
-1.899440884590148926e-01
-1.896250098943710327e-01
-1.891617029905319214e-01
-1.842603236436843872e-01
-1.883632242679595947e-01
-1.830693334341049194e-01
-1.888969987630844116e-01
-1.818933039903640747e-01
-1.841340065002441406e-01
-1.830030530691146851e-01
-8.684550970792770386e-02
-8.160810917615890503e-02
-1.109316721558570862e-01
-5.389394611120223999e-02
-5.124450847506523132e-02
-3.192961588501930237e-02
-5.567857250571250916e-02
-9.030094370245933533e-03
5.014910362660884857e-03
7.053666748106479645e-03
4.850221052765846252e-02
5.094335228204727173e-02
1.082192063331604004e-01
8.160018175840377808e-02
1.094426065683364868e-01
4.609055817127227783e-02
3.460951521992683411e-02
6.091149896383285522e-02
2.824804745614528656e-02
4.167084768414497375e-02
7.729257643222808838e-02
1.670320779085159302e-01
4.803409427404403687e-02
6.917768716812133789e-02
1.676523983478546143e-01
1.557825952768325806e-01
1.631966978311538696e-01
1.174617111682891846e-01
1.463215053081512451e-01
1.290765106678009033e-01
1.304743140935897827e-01
1.137544661760330200e-01
1.412158310413360596e-01
1.305976361036300659e-01
6.513442844152450562e-02
1.151770800352096558e-01
1.450035125017166138e-01
1.734568625688552856e-01
5.242358893156051636e-02
8.635267615318298340e-02
7.118726521730422974e-02
9.182585030794143677e-02
1.624660938978195190e-01
7.100076228380203247e-02
5.922035127878189087e-02
7.615663111209869385e-02
6.796319782733917236e-02
6.953609734773635864e-02
8.538254350423812866e-02
1.867435276508331299e-01
7.512820512056350708e-02
1.834196299314498901e-01
1.722886264324188232e-01
1.828841567039489746e-01
1.829629987478256226e-01
1.859721839427947998e-01
1.823803931474685669e-01
1.782106906175613403e-01
1.785681545734405518e-01
1.838947087526321411e-01
1.842747330665588379e-01
1.860806941986083984e-01
1.883613318204879761e-01
1.926169544458389282e-01
1.881869733333587646e-01
1.243020296096801758e-01
1.932628601789474487e-01
1.907064616680145264e-01
1.938462555408477783e-01
1.907891035079956055e-01
1.961007267236709595e-01
1.914733797311782837e-01
1.806370913982391357e-01
1.684395521879196167e-01
1.595485359430313110e-01
1.887683868408203125e-01
1.653800010681152344e-01
1.677761971950531006e-01
1.677026748657226562e-01
1.612737476825714111e-01
1.699015647172927856e-01
1.542090922594070435e-01
1.663942635059356689e-01
1.502330154180526733e-01
1.556813716888427734e-01
1.619455069303512573e-01
1.725327521562576294e-01
1.780424416065216064e-01
1.772617548704147339e-01
1.663691699504852295e-01
1.558293253183364868e-01
1.622429937124252319e-01
1.538185775279998779e-01
1.575712561607360840e-01
1.495081037282943726e-01
1.460668891668319702e-01
1.498606353998184204e-01
1.457909792661666870e-01
1.402233242988586426e-01
1.418462693691253662e-01
1.236861050128936768e-01
1.200564950704574585e-01
1.210901811718940735e-01
1.081387102603912354e-01
8.764570951461791992e-02
8.517084270715713501e-02
6.916853785514831543e-02
5.979697778820991516e-02
1.371101289987564087e-02
3.184320405125617981e-02
-1.082720002159476280e-03
-2.970498986542224884e-02
-6.122182309627532959e-02
-7.274553179740905762e-02
-9.941176325082778931e-02
-1.122853904962539673e-01
-1.199247911572456360e-01
-1.241757497191429138e-01
-1.123980581760406494e-01
-1.321516335010528564e-01
-1.398064643144607544e-01
-1.383759975433349609e-01
-1.505579054355621338e-01
-1.515239030122756958e-01
-1.458044052124023438e-01
-1.509214192628860474e-01
-1.461758911609649658e-01
-1.509198546409606934e-01
-1.548997610807418823e-01
-1.544284969568252563e-01
-1.574653834104537964e-01
-1.669497489929199219e-01
-1.553774476051330566e-01
-1.561733186244964600e-01
-1.571433693170547485e-01
-1.610083878040313721e-01
-1.645234078168869019e-01
-1.634658873081207275e-01
-1.649338901042938232e-01
-1.648190021514892578e-01
-1.660887002944946289e-01
-1.695136576890945435e-01
-1.638638675212860107e-01
-1.668470352888107300e-01
-1.678403913974761963e-01
-1.708849072456359863e-01
-1.693619638681411743e-01
-1.740991920232772827e-01
-1.741339862346649170e-01
-1.701170355081558228e-01
-1.749753057956695557e-01
-1.804430335760116577e-01
-1.715041995048522949e-01
-1.813024580478668213e-01
-1.855280846357345581e-01
-1.758411973714828491e-01
-1.776469498872756958e-01
-1.832093000411987305e-01
-1.846987605094909668e-01
-1.798453927040100098e-01
-1.850689649581909180e-01
-1.907472908496856689e-01
-1.894001513719558716e-01
-1.925313770771026611e-01
-1.880231350660324097e-01
-1.935990452766418457e-01
-1.773036569356918335e-01
-1.903106719255447388e-01
-1.975720822811126709e-01
-1.981214582920074463e-01
-1.875827759504318237e-01
-1.974373608827590942e-01
-1.972422301769256592e-01
-1.951839029788970947e-01
-1.924592703580856323e-01
-1.966923475265502930e-01
6.965228170156478882e-02
-1.890989691019058228e-01
-1.621928960084915161e-01
1.285936385393142700e-01
1.686055660247802734e-01
9.948876500129699707e-02
1.883476078510284424e-01
1.866349577903747559e-01
1.475672274827957153e-01
1.915175914764404297e-01
1.875276714563369751e-01
1.926944255828857422e-01
1.194412112236022949e-01
1.872831284999847412e-01
1.498174220323562622e-01
1.617526412010192871e-01
-1.667041033506393433e-01
5.944409966468811035e-02
-1.913401335477828979e-01
-1.927179098129272461e-01
-1.778293848037719727e-01
-1.539854407310485840e-01
1.968009769916534424e-02
-1.479891091585159302e-01
-1.932931989431381226e-01
-1.786788702011108398e-01
1.915220171213150024e-01
-1.886345446109771729e-01
1.738244444131851196e-01
1.934975385665893555e-01
-1.835403740406036377e-01
-1.805113404989242554e-01
1.934493780136108398e-01
1.959418803453445435e-01
1.936593651771545410e-01
1.967398077249526978e-01
1.965740472078323364e-01
1.968848109245300293e-01
1.970553994178771973e-01
1.985015869140625000e-01
1.965064704418182373e-01
1.929745823144912720e-01
1.963566541671752930e-01
-1.630550473928451538e-01
-1.598482951521873474e-02
-1.665054857730865479e-01
1.898133661597967148e-03
-1.920214742422103882e-01
1.868223845958709717e-01
-1.635864228010177612e-01
1.933100223541259766e-01
1.947826445102691650e-01
1.962917149066925049e-01
1.934550702571868896e-01
1.921314895153045654e-01
1.919134259223937988e-01
1.948340833187103271e-01
1.919329017400741577e-01
1.931274533271789551e-01
-1.337987184524536133e-01
-1.596228629350662231e-01
-1.450020074844360352e-01
-1.537432521581649780e-01
-1.658054888248443604e-01
-6.657838076353073120e-02
1.535253822803497314e-01
-1.253638565540313721e-01
1.943307667970657349e-01
1.845927685499191284e-01
1.954911649227142334e-01
1.861405521631240845e-01
1.949327737092971802e-01
1.939278095960617065e-01
1.936756223440170288e-01
1.910184323787689209e-01
1.927341222763061523e-01
1.923650205135345459e-01
1.927285492420196533e-01
1.914436370134353638e-01
1.917445510625839233e-01
1.924566626548767090e-01
1.716599315404891968e-01
1.893499493598937988e-01
1.883323937654495239e-01
1.746415644884109497e-01
1.867983937263488770e-01
1.812043488025665283e-01
1.804351508617401123e-01
1.605088561773300171e-01
1.283747553825378418e-01
-1.291854232549667358e-01
-1.154899150133132935e-01
-1.494172662496566772e-01
-1.359440982341766357e-01
-1.277055591344833374e-01
-1.218719556927680969e-01
-1.528515070676803589e-01
-9.925153106451034546e-02
7.602822035551071167e-02
1.169730201363563538e-01
1.010395660996437073e-01
1.005320772528648376e-01
1.685689203441143036e-03
1.285617202520370483e-01
5.549068376421928406e-02
1.363103836774826050e-01
-3.664845228195190430e-02
5.364907160401344299e-02
-1.200377866625785828e-01
-1.161293610930442810e-01
-1.003498211503028870e-01
-1.108918040990829468e-01
-1.327732205390930176e-01
-1.799288243055343628e-01
-1.747698783874511719e-01
-1.237559244036674500e-01
-1.641649007797241211e-01
-1.580643802881240845e-01
-1.745243966579437256e-01
-1.562097966670989990e-01
-1.530253887176513672e-01
-1.717910617589950562e-01
-1.403116881847381592e-01
-1.597615629434585571e-01
-1.580724567174911499e-01
-1.550971269607543945e-01
-1.475791782140731812e-01
-1.606643199920654297e-01
-1.681029945611953735e-01
-1.678589433431625366e-01
-1.733147948980331421e-01
-1.652405858039855957e-01
-1.515382677316665649e-01
-1.459424346685409546e-01
-1.406056135892868042e-01
-1.559578776359558105e-01
-1.588806360960006714e-01
-1.617094129323959351e-01
-1.670075356960296631e-01
-1.530625224113464355e-01
-1.596707105636596680e-01
-1.500606983900070190e-01
-1.502524018287658691e-01
-1.508573144674301147e-01
-1.517194956541061401e-01
-1.495665758848190308e-01
-1.551246345043182373e-01
-1.528586447238922119e-01
-1.517767608165740967e-01
-1.578503847122192383e-01
-1.476517766714096069e-01
-1.520640105009078979e-01
-1.476286649703979492e-01
-1.510346233844757080e-01
-1.470010578632354736e-01
-1.529585868120193481e-01
-1.508464664220809937e-01
-1.479528695344924927e-01
-1.465606838464736938e-01
-1.416587978601455688e-01
-1.466809064149856567e-01
-1.431231498718261719e-01
-1.484691351652145386e-01
-1.437993496656417847e-01
-1.399734616279602051e-01
-1.446775496006011963e-01
-1.370303183794021606e-01
-1.414925009012222290e-01
-1.351229846477508545e-01
-1.407878696918487549e-01
-1.411492824554443359e-01
-1.433667540550231934e-01
-1.378547996282577515e-01
-1.365650445222854614e-01
-1.374658346176147461e-01
-1.385556906461715698e-01
-1.368246376514434814e-01
-1.341001838445663452e-01
-1.380311995744705200e-01
-1.344619244337081909e-01
-1.351018548011779785e-01
-1.300029307603836060e-01
-1.353773027658462524e-01
-1.352844834327697754e-01
-1.317421942949295044e-01
-1.318155676126480103e-01
-1.247005164623260498e-01
-1.213401257991790771e-01
-1.240785121917724609e-01
-1.202859207987785339e-01
-1.224772483110427856e-01
-1.157415509223937988e-01
-1.129269599914550781e-01
-1.172888651490211487e-01
-1.224212348461151123e-01
-1.143610998988151550e-01
-1.167917698621749878e-01
-1.146122962236404419e-01
-1.133753359317779541e-01
-1.168751046061515808e-01
-1.083016917109489441e-01
-1.124130040407180786e-01
-1.189183518290519714e-01
-1.159728989005088806e-01
-1.167436391115188599e-01
-1.160719916224479675e-01
-1.102227047085762024e-01
-1.251361072063446045e-01
-1.093687638640403748e-01
-1.265901625156402588e-01
-1.375811398029327393e-01
-1.216102913022041321e-01
-1.300579309463500977e-01
-1.258783191442489624e-01
-1.230862364172935486e-01
-1.258071660995483398e-01
-1.369595527648925781e-01
-1.232622414827346802e-01
-1.304837167263031006e-01
-1.305766850709915161e-01
-1.570559889078140259e-01
-1.546238362789154053e-01
-1.583493798971176147e-01
-1.575019657611846924e-01
-1.602250188589096069e-01
-1.872372478246688843e-01
-1.709897369146347046e-01
-1.695289313793182373e-01
-1.745303422212600708e-01
-1.189426705241203308e-01
-1.458495557308197021e-01
-1.439176797866821289e-01
-1.431256234645843506e-01
-1.384215205907821655e-01
-1.611441969871520996e-01
-1.311613768339157104e-01
-1.475006192922592163e-01
-1.462221145629882812e-01
-1.523260772228240967e-01
-1.580380499362945557e-01
-1.669121682643890381e-01
-8.160682767629623413e-02
-1.517944186925888062e-01
-9.107883274555206299e-02
-3.203633055090904236e-02
-3.306518867611885071e-02
-5.011821910738945007e-02
-3.546632453799247742e-02
-3.312416374683380127e-02
-5.740012973546981812e-02
-2.948536910116672516e-02
-6.838744878768920898e-02
-1.242643296718597412e-01
-1.477366685867309570e-01
-1.648109257221221924e-01
-1.335242539644241333e-01
-1.882650852203369141e-01
-1.847977340221405029e-01
-1.912772655487060547e-01
-1.910743713378906250e-01
-1.911468803882598877e-01
-1.902214735746383667e-01
-1.938470900058746338e-01
-1.911563724279403687e-01
-1.932905018329620361e-01
-1.794653832912445068e-01
-1.761078983545303345e-01
1.537668984383344650e-02
-1.856900006532669067e-01
-1.853284239768981934e-01
-1.369232833385467529e-01
1.720081418752670288e-01
1.517594009637832642e-01
1.907664537429809570e-01
1.763773560523986816e-01
1.673169285058975220e-01
1.922541260719299316e-01
1.915790736675262451e-01
1.886118501424789429e-01
1.929433494806289673e-01
1.732244342565536499e-01
1.898935735225677490e-01
1.916339993476867676e-01
-1.278394181281328201e-02
-1.601604819297790527e-01
-1.766070574522018433e-01
-1.942511647939682007e-01
-1.880802363157272339e-01
-1.499802321195602417e-01
5.951140075922012329e-02
-1.959179490804672241e-01
-1.977085322141647339e-01
-1.831545531749725342e-01
-1.927294731140136719e-01
-1.965903192758560181e-01
-1.960679888725280762e-01
-1.877191662788391113e-01
-1.788357943296432495e-01
-1.936569958925247192e-01
-8.519674651324748993e-03
-1.947382092475891113e-01
-1.928891837596893311e-01
-1.964371800422668457e-01
-1.816675662994384766e-01
1.864197552204132080e-01
1.974995434284210205e-01
-1.918379068374633789e-01
1.824712157249450684e-01
1.966155022382736206e-01
1.963635832071304321e-01
1.964664906263351440e-01
1.961205005645751953e-01
1.955502927303314209e-01
1.972917318344116211e-01
1.980447024106979370e-01
1.972536742687225342e-01
1.007008254528045654e-01
1.954411566257476807e-01
-1.952548474073410034e-01
-1.574169844388961792e-01
-1.957915723323822021e-01
1.771337538957595825e-01
-1.965950578451156616e-01
-1.954075545072555542e-01
-1.806092858314514160e-01
1.940485984086990356e-01
-1.960738897323608398e-01
-1.912065893411636353e-01
-1.961901485919952393e-01
1.902850717306137085e-01
1.923457235097885132e-01
1.776661723852157593e-01
-1.426951587200164795e-01
-1.020441427826881409e-01
-4.143315926194190979e-02
-1.419124156236648560e-01
9.612707793712615967e-02
1.884233951568603516e-01
-8.202655240893363953e-03
1.867049932479858398e-01
1.921024769544601440e-01
1.897992193698883057e-01
1.860494911670684814e-01
1.725378334522247314e-01
1.831588447093963623e-01
1.815142482519149780e-01
1.788308918476104736e-01
1.691920161247253418e-01
1.769066005945205688e-01
1.825355887413024902e-01
1.204890012741088867e-01
2.436994761228561401e-02
1.264264583587646484e-01
-9.477899223566055298e-02
-1.111404374241828918e-01
-6.276544928550720215e-02
2.976943366229534149e-02
1.864291131496429443e-01
-1.055678650736808777e-01
-8.984358049929141998e-03
2.738067135214805603e-02
1.675113141536712646e-01
1.628938913345336914e-01
1.913467496633529663e-01
8.903306722640991211e-02
1.790260523557662964e-01
1.657461673021316528e-01
1.785243898630142212e-01
1.860182583332061768e-01
1.940717250108718872e-01
1.935406625270843506e-01
1.945596784353256226e-01
1.940112113952636719e-01
1.916188299655914307e-01
1.825972497463226318e-01
1.838369071483612061e-01
1.884455382823944092e-01
1.882511973381042480e-01
1.863466650247573853e-01
1.933641135692596436e-01
1.927089542150497437e-01
1.907189637422561646e-01
1.846739053726196289e-01
1.934691518545150757e-01
1.925362497568130493e-01
1.013278812170028687e-01
9.797305613756179810e-02
1.053988635540008545e-01
1.944109797477722168e-01
1.491312980651855469e-01
1.765531599521636963e-01
1.199793517589569092e-01
1.406128853559494019e-01
1.884088516235351562e-01
1.828247606754302979e-01
1.879659742116928101e-01
1.728409826755523682e-01
1.849515289068222046e-01
1.811540275812149048e-01
1.780850887298583984e-01
1.848679780960083008e-01
1.700025349855422974e-01
1.914363950490951538e-01
1.738525778055191040e-01
1.775693595409393311e-01
1.901167631149291992e-01
1.917539089918136597e-01
1.917197853326797485e-01
1.843845844268798828e-01
1.911089271306991577e-01
1.627946943044662476e-01
1.358079761266708374e-01
1.910421103239059448e-01
1.824434399604797363e-01
1.881056576967239380e-01
1.524259150028228760e-01
1.698038727045059204e-01
1.648142933845520020e-01
1.740299314260482788e-01
1.792165786027908325e-01
1.730903983116149902e-01
1.741468757390975952e-01
1.675671935081481934e-01
1.799530684947967529e-01
1.822893470525741577e-01
1.737001389265060425e-01
1.618402898311614990e-01
1.612937599420547485e-01
1.698023974895477295e-01
1.671909689903259277e-01
1.833689510822296143e-01
1.735249012708663940e-01
1.832307428121566772e-01
1.721433252096176147e-01
1.530523449182510376e-01
1.754013150930404663e-01
1.543257534503936768e-01
1.747609227895736694e-01
1.602787524461746216e-01
1.587850153446197510e-01
1.585113555192947388e-01
1.475987881422042847e-01
1.469429433345794678e-01
1.520263850688934326e-01
1.510061621665954590e-01
1.412758678197860718e-01
1.463869065046310425e-01
1.410085856914520264e-01
1.350400000810623169e-01
1.396161466836929321e-01
1.293205916881561279e-01
1.276704072952270508e-01
1.218118220567703247e-01
1.241265535354614258e-01
1.400455534458160400e-01
1.301269531250000000e-01
1.182150915265083313e-01
1.146483346819877625e-01
1.015480607748031616e-01
9.928404539823532104e-02
9.500125795602798462e-02
1.097285524010658264e-01
1.222324147820472717e-01
1.079272255301475525e-01
9.807042777538299561e-02
8.619600534439086914e-02
8.094117790460586548e-02
7.792712748050689697e-02
7.664977014064788818e-02
7.930546998977661133e-02
8.500349521636962891e-02
6.786301732063293457e-02
5.365269631147384644e-02
3.939415514469146729e-02
2.869118750095367432e-02
4.679451510310173035e-02
2.593979984521865845e-02
3.301900997757911682e-02
2.590228617191314697e-02
7.617982104420661926e-03
-1.868261769413948059e-02
-3.116339817643165588e-02
-2.599626220762729645e-02
-2.155699394643306732e-02
-2.063279971480369568e-02
-2.491627261042594910e-02
-1.209005899727344513e-02
-3.896803408861160278e-02
-4.891185835003852844e-02
-4.672051593661308289e-02
-6.254154443740844727e-02
-6.535379588603973389e-02
-6.296925246715545654e-02
-5.195937305688858032e-02
-6.408081203699111938e-02
-7.377656549215316772e-02
-8.161134272813796997e-02
-8.082336187362670898e-02
-8.403764665126800537e-02
-9.377050399780273438e-02
-7.191355526447296143e-02
-7.648366689682006836e-02
-6.626852601766586304e-02
-6.292755901813507080e-02
-6.952235102653503418e-02
-6.557584553956985474e-02
-8.273737877607345581e-02
-9.137926250696182251e-02
-9.190696477890014648e-02
-7.949472218751907349e-02
-7.874854654073715210e-02
-8.567053079605102539e-02
-8.353496342897415161e-02
-8.697438985109329224e-02
-8.913258463144302368e-02
-1.025104671716690063e-01
-9.950131922960281372e-02
-9.618993848562240601e-02
-9.510055929422378540e-02
-1.055506691336631775e-01
-1.078547909855842590e-01
-1.128118485212326050e-01
-1.166761890053749084e-01
-1.208371073007583618e-01
-1.216403171420097351e-01
-1.216692253947257996e-01
-1.243157386779785156e-01
-1.384285986423492432e-01
-1.487861722707748413e-01
-1.460296064615249634e-01
-1.576554179191589355e-01
-1.625389903783798218e-01
-1.637162119150161743e-01
-1.550423204898834229e-01
-1.564150154590606689e-01
-1.656243056058883667e-01
-1.694601625204086304e-01
-1.710970848798751831e-01
-1.793398857116699219e-01
-1.808299124240875244e-01
-1.779311597347259521e-01
-1.819106936454772949e-01
-1.744399815797805786e-01
-1.640993803739547729e-01
-1.876456141471862793e-01
-1.881691068410873413e-01
-1.838941872119903564e-01
-1.938736885786056519e-01
-1.951515227556228638e-01
-1.859700381755828857e-01
-1.925942301750183105e-01
-1.948094516992568970e-01
-1.930915713310241699e-01
-1.930158138275146484e-01
-1.950523108243942261e-01
-1.652108877897262573e-01
-1.950290352106094360e-01
-1.937243789434432983e-01
-1.796442270278930664e-01
-1.774175316095352173e-01
-1.909905672073364258e-01
9.389687329530715942e-02
-1.564173549413681030e-01
-3.880967944860458374e-02
1.336124092340469360e-01
1.512286812067031860e-01
1.434843242168426514e-01
1.397355645895004272e-01
1.592930108308792114e-01
1.593415290117263794e-01
1.533588171005249023e-01
7.988297194242477417e-02
4.304415546357631683e-03
-1.854285746812820435e-01
-1.839435845613479614e-01
-1.929019987583160400e-01
-1.936770975589752197e-01
-1.958113014698028564e-01
-1.956866383552551270e-01
-1.963866949081420898e-01
-1.954845339059829712e-01
-1.964516937732696533e-01
-1.953033655881881714e-01
-1.961060464382171631e-01
-1.965206563472747803e-01
-1.960775852203369141e-01
-1.950735747814178467e-01
-1.600390523672103882e-01
-1.962510496377944946e-01
-1.965749412775039673e-01
-1.938694566488265991e-01
-1.944200247526168823e-01
4.884023219347000122e-02
1.956662982702255249e-01
-1.089948117733001709e-01
1.949551254510879517e-01
1.958309262990951538e-01
1.963169127702713013e-01
1.960561573505401611e-01
1.955960839986801147e-01
1.943833529949188232e-01
1.955959051847457886e-01
1.968260705471038818e-01
-1.748241186141967773e-01
-1.907606124877929688e-01
-1.952580213546752930e-01
-1.954431235790252686e-01
-1.951382011175155640e-01
-1.933341622352600098e-01
-1.766902655363082886e-01
-1.936761140823364258e-01
-1.905721873044967651e-01
1.947421282529830933e-01
1.943943500518798828e-01
1.926964819431304932e-01
1.946167647838592529e-01
1.928351670503616333e-01
1.950222700834274292e-01
1.928983032703399658e-01
1.926592141389846802e-01
1.896144300699234009e-01
1.905389875173568726e-01
1.913257986307144165e-01
1.933194547891616821e-01
1.884464174509048462e-01
1.926991790533065796e-01
1.929903924465179443e-01
1.912522464990615845e-01
-1.904768049716949463e-01
-1.849377751350402832e-01
-1.829430907964706421e-01
-1.763281524181365967e-01
-1.407601833343505859e-01
-1.245905309915542603e-01
-1.279584169387817383e-01
-1.043843179941177368e-01
-9.822037070989608765e-02
-3.221963718533515930e-02
2.424046397209167480e-05
-7.727296650409698486e-02
-3.420558199286460876e-02
1.396974921226501465e-01
1.159913316369056702e-01
1.073299869894981384e-01
1.335227489471435547e-01
1.080324500799179077e-01
1.201923340559005737e-01
1.212280020117759705e-01
1.016881838440895081e-01
1.240320131182670593e-01
1.133563667535781860e-01
1.184165850281715393e-01
-5.492038279771804810e-02
-7.341594994068145752e-02
-7.002924382686614990e-02
-8.475524932146072388e-02
-3.631540015339851379e-02
1.756099164485931396e-01
-4.034028202295303345e-02
1.444952189922332764e-01
1.536739170551300049e-01
1.559438258409500122e-01
1.445359587669372559e-01
1.652599573135375977e-01
1.847941726446151733e-01
1.709477901458740234e-01
1.891887336969375610e-01
1.623426973819732666e-01
1.875104606151580811e-01
1.945509612560272217e-01
1.212659664452075958e-02
2.164854854345321655e-02
1.018480304628610611e-02
1.921293884515762329e-01
5.200006440281867981e-02
3.323829919099807739e-02
1.754876971244812012e-01
1.916901171207427979e-01
5.893748626112937927e-02
1.173760443925857544e-01
1.937670707702636719e-01
1.937780529260635376e-01
1.963466107845306396e-01
1.970954835414886475e-01
1.939453929662704468e-01
1.949885934591293335e-01
1.737163364887237549e-01
1.937034577131271362e-01
1.941554844379425049e-01
1.954252272844314575e-01
1.949615627527236938e-01
1.946835368871688843e-01
1.971015781164169312e-01
1.902442872524261475e-01
1.934022605419158936e-01
1.948415488004684448e-01
1.931721568107604980e-01
1.889113038778305054e-01
1.893368065357208252e-01
1.803994029760360718e-01
1.962464898824691772e-01
1.923545300960540771e-01
1.686716824769973755e-01
1.927464604377746582e-01
1.939426511526107788e-01
1.956145316362380981e-01
1.787727177143096924e-01
1.623136848211288452e-01
1.939645707607269287e-01
1.921471059322357178e-01
1.912446320056915283e-01
1.794338673353195190e-01
1.928521096706390381e-01
1.951763927936553955e-01
1.877047419548034668e-01
1.868321746587753296e-01
1.903541982173919678e-01
1.918959021568298340e-01
1.795313060283660889e-01
1.888610124588012695e-01
1.899341344833374023e-01
1.776979714632034302e-01
1.718614548444747925e-01
1.719056069850921631e-01
1.709359288215637207e-01
1.805250197649002075e-01
1.761343032121658325e-01
1.783667653799057007e-01
1.775912195444107056e-01
1.684984117746353149e-01
1.620841473340988159e-01
1.648879796266555786e-01
1.661728173494338989e-01
1.621470600366592407e-01
1.656699627637863159e-01
1.582468450069427490e-01
1.599857658147811890e-01
1.509571075439453125e-01
1.523640602827072144e-01
1.539039015769958496e-01
1.533046960830688477e-01
1.539639234542846680e-01
1.548706442117691040e-01
1.458774507045745850e-01
1.479380875825881958e-01
1.405469179153442383e-01
1.362219899892807007e-01
1.385137438774108887e-01
1.288907676935195923e-01
1.302304714918136597e-01
1.251186430454254150e-01
1.268094778060913086e-01
1.256096512079238892e-01
1.190502643585205078e-01
1.219705790281295776e-01
1.198226138949394226e-01
1.180193051695823669e-01
1.068567484617233276e-01
1.083825230598449707e-01
1.094686910510063171e-01
1.007305234670639038e-01
1.004855856299400330e-01
9.318064153194427490e-02
1.011929512023925781e-01
8.780962973833084106e-02
9.149929881095886230e-02
1.007646247744560242e-01
9.505726397037506104e-02
7.722119241952896118e-02
6.834175437688827515e-02
6.914007663726806641e-02
5.724966153502464294e-02
7.225728780031204224e-02
7.084543257951736450e-02
7.992018759250640869e-02
5.010071396827697754e-02
3.238417953252792358e-02
3.315763548016548157e-02
3.009693697094917297e-02
4.188265278935432434e-02
3.229892626404762268e-02
4.124252498149871826e-02
3.288793563842773438e-02
1.373857352882623672e-02
-1.135976985096931458e-02
-1.431382913142442703e-02
7.365002529695630074e-04
-3.304564626887440681e-03
3.736586309969425201e-03
-6.825127173215150833e-03
1.012405380606651306e-03
-1.229251734912395477e-02
-2.992700599133968353e-02
-2.741251513361930847e-02
-3.466989472508430481e-02
-3.476508334279060364e-02
-3.818125277757644653e-02
-2.665630541741847992e-02
-3.391320258378982544e-02
-4.853076115250587463e-02
-4.451048001646995544e-02
-4.630206525325775146e-02
-5.160662904381752014e-02
-6.108155474066734314e-02
-4.660280421376228333e-02
-5.163829028606414795e-02
-4.686535149812698364e-02
-5.675708130002021790e-02
-5.403606221079826355e-02
-5.479651689529418945e-02
-6.864407658576965332e-02
-7.510788738727569580e-02
-7.209943234920501709e-02
-6.539850682020187378e-02
-7.324831187725067139e-02
-7.516361773014068604e-02
-7.760824263095855713e-02
-7.397441565990447998e-02
-8.994086086750030518e-02
-1.128512173891067505e-01
-9.498901665210723877e-02
-8.507847040891647339e-02
-8.118864893913269043e-02
-8.455069363117218018e-02
-8.406133949756622314e-02
-8.372004330158233643e-02
-1.006455644965171814e-01
-1.206581667065620422e-01
-1.146597340703010559e-01
-1.065958589315414429e-01
-9.594965726137161255e-02
-1.172082051634788513e-01
-1.241681054234504700e-01
-1.077067703008651733e-01
-1.351053863763809204e-01
-1.282541602849960327e-01
-1.386814266443252563e-01
-1.178563088178634644e-01
-1.227009966969490051e-01
-1.499992311000823975e-01
-1.443912237882614136e-01
-1.572021991014480591e-01
-1.586278080940246582e-01
-1.653818339109420776e-01
-1.588705033063888550e-01
-1.505953371524810791e-01
-1.512155830860137939e-01
-1.535112857818603516e-01
-1.563054621219635010e-01
-1.581439375877380371e-01
-1.748910248279571533e-01
-1.682664304971694946e-01
-1.753503978252410889e-01
-1.713577359914779663e-01
-1.669669449329376221e-01
-1.784589290618896484e-01
-1.583932042121887207e-01
-1.815851032733917236e-01
-1.277556717395782471e-01
-1.846440732479095459e-01
-1.871896833181381226e-01
-1.801878660917282104e-01
-1.888213306665420532e-01
-1.856357455253601074e-01
-1.885101944208145142e-01
-1.868845224380493164e-01
-1.887687593698501587e-01
-1.805756986141204834e-01
-1.868706345558166504e-01
-1.554518938064575195e-01
-1.586650013923645020e-01
-1.519391685724258423e-01
-1.637446284294128418e-01
1.258965730667114258e-01
1.145583689212799072e-01
1.212982013821601868e-01
1.575229316949844360e-01
1.525405198335647583e-01
1.779818236827850342e-01
1.699868738651275635e-01
1.708665639162063599e-01
1.338998973369598389e-01
1.010064780712127686e-01
4.036066681146621704e-02
-1.765179932117462158e-01
-1.830431222915649414e-01
-1.684111207723617554e-01
-1.828810125589370728e-01
-1.931921243667602539e-01
-1.900811046361923218e-01
-1.937299072742462158e-01
-1.943948268890380859e-01
-1.956093013286590576e-01
-1.944727897644042969e-01
-1.976151466369628906e-01
-1.895946562290191650e-01
-8.492626249790191650e-02
1.813978999853134155e-01
1.470701694488525391e-01
1.609448790550231934e-01
1.907850205898284912e-01
1.901918053627014160e-01
1.738180816173553467e-01
1.906115412712097168e-01
-1.804203540086746216e-01
1.908740103244781494e-01
-1.689845323562622070e-01
-1.593294888734817505e-01
-1.769308745861053467e-01
-1.662524044513702393e-01
-1.939222514629364014e-01
-1.928172558546066284e-01
-1.733513623476028442e-01
1.922284662723541260e-01
-1.931780278682708740e-01
1.869310289621353149e-01
1.927820593118667603e-01
1.915161907672882080e-01
1.903746426105499268e-01
1.933624148368835449e-01
1.770087182521820068e-01
1.928977817296981812e-01
1.935551613569259644e-01
1.922065168619155884e-01
1.431386619806289673e-01
-1.788689792156219482e-01
-1.946822702884674072e-01
-1.947115659713745117e-01
-1.924867331981658936e-01
-1.646742671728134155e-01
-1.948038637638092041e-01
-1.888780444860458374e-01
9.777139127254486084e-02
-1.657251864671707153e-01
-1.557406634092330933e-01
-1.671365350484848022e-01
1.924950927495956421e-01
1.874550580978393555e-01
1.966271251440048218e-01
1.951093077659606934e-01
1.948541402816772461e-01
1.936157941818237305e-01
1.892352104187011719e-01
1.769541352987289429e-01
1.759679764509201050e-01
1.855716407299041748e-01
1.669142544269561768e-01
1.731790453195571899e-01
1.683403849601745605e-01
1.790292263031005859e-01
1.434730887413024902e-01
-1.369479745626449585e-01
8.964070677757263184e-02
-6.949619203805923462e-02
1.908717155456542969e-01
-9.649837762117385864e-02
-9.767965972423553467e-02
-7.312338799238204956e-02
-7.409747689962387085e-02
-7.711616158485412598e-02
-3.458952903747558594e-02
1.409213244915008545e-01
-5.118958279490470886e-02
5.077520012855529785e-02
1.382922679185867310e-01
1.417471319437026978e-01
1.410529166460037231e-01
1.507665663957595825e-01
1.648679673671722412e-01
1.740325689315795898e-01
1.652937978506088257e-01
1.543915867805480957e-01
1.686771214008331299e-01
1.829428821802139282e-01
1.588147580623626709e-01
1.767579019069671631e-01
1.897394657135009766e-01
1.901360452175140381e-01
1.907634139060974121e-01
1.104967948049306870e-02
1.807620376348495483e-01
1.256987452507019043e-02
-2.942094765603542328e-02
-2.852189168334007263e-02
1.078463904559612274e-02
-2.465147525072097778e-02
-2.813128754496574402e-02
1.513444781303405762e-01
1.074156314134597778e-01
8.975994586944580078e-02
1.016569137573242188e-01
1.455758959054946899e-01
1.442742645740509033e-01
1.821907758712768555e-01
1.809444278478622437e-01
1.734815239906311035e-01
1.889109164476394653e-01
1.842038780450820923e-01
1.937755346298217773e-01
-2.713422104716300964e-02
1.950021535158157349e-01
1.934306323528289795e-01
1.962959021329879761e-01
1.956376731395721436e-01
1.915638297796249390e-01
1.872979700565338135e-01
1.937191635370254517e-01
1.870194673538208008e-01
1.834118366241455078e-01
1.887973248958587646e-01
1.824397593736648560e-01
1.691850721836090088e-01
1.724573224782943726e-01
1.677900701761245728e-01
1.821067631244659424e-01
1.885844916105270386e-01
1.875058859586715698e-01
4.010444134473800659e-02
2.035716362297534943e-02
-5.205941200256347656e-02
-4.659818857908248901e-02
3.060636855661869049e-02
-2.700698748230934143e-02
-6.791899912059307098e-03
1.556506305932998657e-01
3.257708251476287842e-02
1.680812835693359375e-01
1.570272892713546753e-01
1.733011156320571899e-01
1.647276729345321655e-01
1.624402105808258057e-01
1.452708244323730469e-01
1.593852341175079346e-01
1.343198418617248535e-01
1.191387400031089783e-01
1.484426856040954590e-01
1.365734934806823730e-01
1.506775021553039551e-01
1.696068346500396729e-01
1.589109003543853760e-01
1.532122492790222168e-01
1.322735697031021118e-01
1.436130404472351074e-01
1.352978944778442383e-01
1.188587546348571777e-01
1.123657003045082092e-01
1.222150251269340515e-01
1.079108789563179016e-01
9.297420084476470947e-02
7.756927609443664551e-02
8.653169870376586914e-02
8.329313993453979492e-02
6.925315409898757935e-02
6.113114207983016968e-02
5.955537036061286926e-02
5.359296873211860657e-02
4.534048587083816528e-02
4.699540510773658752e-02
3.695862740278244019e-02
4.295499250292778015e-02
2.468736842274665833e-02
2.580925449728965759e-02
2.080992795526981354e-02
1.560606900602579117e-02
1.127636246383190155e-02
1.082221884280443192e-02
-5.150659009814262390e-03
-2.167204208672046661e-02
-1.127470005303621292e-02
-2.576314285397529602e-02
-1.931230910122394562e-02
-1.774054206907749176e-02
-3.204084932804107666e-02
-3.094143420457839966e-02
-5.994113534688949585e-02
-6.210510432720184326e-02
-6.035777926445007324e-02
-4.726966843008995056e-02
-5.302439257502555847e-02
-4.808583483099937439e-02
-6.209932640194892883e-02
-6.440684199333190918e-02
-8.468732982873916626e-02
-9.194108843803405762e-02
-6.199164316058158875e-02
-6.771980226039886475e-02
-6.624207645654678345e-02
-8.351479470729827881e-02
-8.211356401443481445e-02
-7.763251662254333496e-02
-7.908646762371063232e-02
-7.822560518980026245e-02
-6.822914630174636841e-02
-7.460041344165802002e-02
-7.375503331422805786e-02
-8.305763453245162964e-02
-8.331114053726196289e-02
-6.981977820396423340e-02
-7.215575873851776123e-02
-7.557499408721923828e-02
-6.944003701210021973e-02
-7.873862981796264648e-02
-8.134267479181289673e-02
-8.827517181634902954e-02
-9.224638342857360840e-02
-8.832528442144393921e-02
-9.329549968242645264e-02
-9.060861170291900635e-02
-8.488661050796508789e-02
-8.916093409061431885e-02
-8.953335136175155640e-02
-8.620632439851760864e-02
-8.772101253271102905e-02
-9.156218171119689941e-02
-9.096167981624603271e-02
-9.489330649375915527e-02
-8.964925259351730347e-02
-9.044264256954193115e-02
-8.828569203615188599e-02
-8.644954860210418701e-02
-9.061060100793838501e-02
-9.259540587663650513e-02
-9.848849475383758545e-02
-1.033124476671218872e-01
-1.002863198518753052e-01
-1.002802699804306030e-01
-9.878865629434585571e-02
-1.038169562816619873e-01
-9.992767870426177979e-02
-1.012427881360054016e-01
-1.103087365627288818e-01
-1.089823022484779358e-01
-1.146524399518966675e-01
-1.099667623639106750e-01
-1.126587763428688049e-01
-1.208934634923934937e-01
-1.273847520351409912e-01
-1.245799139142036438e-01
-1.306259930133819580e-01
-1.381886601448059082e-01
-1.331318020820617676e-01
-1.275171190500259399e-01
-1.227449476718902588e-01
-1.426591128110885620e-01
-1.463697105646133423e-01
-1.560806632041931152e-01
-1.609593331813812256e-01
-1.679334342479705811e-01
-1.656890809535980225e-01
-1.708305329084396362e-01
-1.615138351917266846e-01
-1.634692698717117310e-01
-1.811616420745849609e-01
-1.789766103029251099e-01
-1.918071210384368896e-01
-1.891734153032302856e-01
-1.930385828018188477e-01
-1.912592202425003052e-01
-1.802537441253662109e-01
-1.820587217807769775e-01
-1.835760474205017090e-01
-1.387859582901000977e-01
-1.744279712438583374e-01
-1.683655530214309692e-01
-1.036877408623695374e-01
-1.866055876016616821e-01
-1.624204814434051514e-01
-1.744956374168395996e-01
-1.931081563234329224e-01
-1.876040250062942505e-01
-1.930426359176635742e-01
-1.939417868852615356e-01
-1.956079453229904175e-01
-1.979904323816299438e-01
-1.974823474884033203e-01
-1.920989006757736206e-01
-1.579280644655227661e-01
-1.904205232858657837e-01
-1.518193632364273071e-01
8.838280290365219116e-02
8.791869133710861206e-02
1.620292365550994873e-01
1.710559576749801636e-01
1.354235410690307617e-01
-4.021522589027881622e-03
1.857473403215408325e-01
1.735079139471054077e-01
-1.961376667022705078e-01
-1.902140080928802490e-01
-1.947905421257019043e-01
-1.978379935026168823e-01
-1.966330111026763916e-01
-1.967639327049255371e-01
-1.949305534362792969e-01
-1.948864012956619263e-01
-7.110948115587234497e-02
-1.969220191240310669e-01
-1.960809081792831421e-01
-1.950019598007202148e-01
-1.847831010818481445e-01
-2.219252660870552063e-02
1.983942240476608276e-01
-9.680999070405960083e-02
1.962774693965911865e-01
1.984276622533798218e-01
1.975579559803009033e-01
1.963318288326263428e-01
1.958758533000946045e-01
1.954513192176818848e-01
1.970428675413131714e-01
1.976284980773925781e-01
1.855144202709197998e-01
1.950044631958007812e-01
-1.821434646844863892e-01
-1.960736811161041260e-01
-1.955391168594360352e-01
-1.934823393821716309e-01
-1.909291148185729980e-01
-1.927034258842468262e-01
-1.898403316736221313e-01
-2.562849223613739014e-02
-1.602428853511810303e-01
-9.333965182304382324e-02
-1.699077636003494263e-01
1.909751743078231812e-01
1.962974667549133301e-01
1.950203627347946167e-01
1.919253915548324585e-01
1.895932257175445557e-01
1.903673857450485229e-01
1.899743825197219849e-01
1.837932467460632324e-01
1.850333213806152344e-01
1.728298813104629517e-01
1.736703068017959595e-01
1.855961233377456665e-01
1.775597482919692993e-01
1.699732393026351929e-01
1.230454221367835999e-01
1.750185936689376831e-01
1.860800087451934814e-01
1.798715591430664062e-01
1.861189603805541992e-01
1.244390085339546204e-01
-4.002903774380683899e-02
-7.734140753746032715e-02
-1.194439679384231567e-01
-7.675530761480331421e-02
1.503406465053558350e-01
1.674144864082336426e-01
-2.942899614572525024e-02
1.342390477657318115e-01
1.493507772684097290e-01
1.570281982421875000e-01
1.583663076162338257e-01
1.392146050930023193e-01
1.245671734213829041e-01
1.173371821641921997e-01
1.224395707249641418e-01
1.193243563175201416e-01
1.568013280630111694e-01
1.500897258520126343e-01
1.381211876869201660e-01
1.531434506177902222e-01
1.650772392749786377e-01
-5.135494470596313477e-02
1.555864214897155762e-01
1.872204095125198364e-01
-4.109420254826545715e-02
-3.899662196636199951e-02
-3.342764452099800110e-02
-1.070789992809295654e-02
2.169471979141235352e-02
1.297393739223480225e-01
1.005371063947677612e-01
1.629555374383926392e-01
1.626574099063873291e-01
1.622352153062820435e-01
1.584850996732711792e-01
1.704976111650466919e-01
1.821519285440444946e-01
1.851581633090972900e-01
1.741701364517211914e-01
1.653371602296829224e-01
1.618021130561828613e-01
1.454056501388549805e-01
1.717592626810073853e-01
1.593646854162216187e-01
1.810352504253387451e-01
1.633139252662658691e-01
1.514118313789367676e-01
1.023795381188392639e-01
8.529081195592880249e-02
1.641099750995635986e-01
1.801643222570419312e-01
1.829515844583511353e-01
1.716698706150054932e-01
1.674031764268875122e-01
1.787568330764770508e-01
1.607778966426849365e-01
1.150069385766983032e-01
1.202630251646041870e-01
1.546179801225662231e-01
1.361441761255264282e-01
1.377344280481338501e-01
1.368856132030487061e-01
1.401231437921524048e-01
1.452849507331848145e-01
1.248466148972511292e-01
1.279528290033340454e-01
1.321708858013153076e-01
1.280236393213272095e-01
1.265557110309600830e-01
1.136189773678779602e-01
1.262647807598114014e-01
1.209430322051048279e-01
1.174943223595619202e-01
1.129179447889328003e-01
1.141179129481315613e-01
1.236127838492393494e-01
9.805800765752792358e-02
9.701512753963470459e-02
8.349959552288055420e-02
9.635175019502639771e-02
7.965736836194992065e-02
8.185185492038726807e-02
1.047070026397705078e-01
9.960490465164184570e-02
1.023099869489669800e-01
8.425411581993103027e-02
7.805562019348144531e-02
8.184944093227386475e-02
7.000351697206497192e-02
5.821885913610458374e-02
7.503701746463775635e-02
5.854102969169616699e-02
5.472194775938987732e-02
5.201699584722518921e-02
4.741818830370903015e-02
6.312195211648941040e-02
3.491989523172378540e-02
4.129574075341224670e-02
1.780462265014648438e-02
2.196061611175537109e-02
1.998974382877349854e-02
1.770996116101741791e-02
2.332129143178462982e-02
1.506982371211051941e-02
1.541786454617977142e-02
1.370870880782604218e-02
7.837167941033840179e-03
7.198063656687736511e-03
-1.017236430197954178e-02
-6.781111005693674088e-03
1.037327107042074203e-03
-1.326674688607454300e-02
-2.666102722287178040e-03
1.547495136037468910e-03
-1.292887888848781586e-02
-3.015975467860698700e-02
-4.816035926342010498e-02
-3.781059756875038147e-02
-3.622309863567352295e-02
-2.741879597306251526e-02
-2.470552921295166016e-02
-2.700755745172500610e-02
-3.355581313371658325e-02
-4.064828529953956604e-02
-4.805178567767143250e-02
-4.641109332442283630e-02
-3.181819990277290344e-02
-4.852314665913581848e-02
-3.728393837809562683e-02
-4.638492316007614136e-02
-4.620115831494331360e-02
-4.342691972851753235e-02
-4.327189549803733826e-02
-4.561954364180564880e-02
-4.971736669540405273e-02
-4.595464095473289490e-02
-4.878119006752967834e-02
-4.808701202273368835e-02
-4.915484786033630371e-02
-5.051687359809875488e-02
-5.009127408266067505e-02
-5.188433825969696045e-02
-5.104047432541847229e-02
-5.955198407173156738e-02
-6.189860031008720398e-02
-5.600992590188980103e-02
-6.165762245655059814e-02
-6.294481456279754639e-02
-5.581568181514739990e-02
-6.269332021474838257e-02
-6.112410128116607666e-02
-7.725035399198532104e-02
-7.277833670377731323e-02
-7.725045830011367798e-02
-7.088723778724670410e-02
-7.646895945072174072e-02
-7.542397081851959229e-02
-7.534644752740859985e-02
-8.438044041395187378e-02
-8.978876471519470215e-02
-9.035960584878921509e-02
-8.639264106750488281e-02
-9.130790829658508301e-02
-8.793655782938003540e-02
-9.943278133869171143e-02
-1.010121107101440430e-01
-1.022693067789077759e-01
-1.124289259314537048e-01
-9.739678353071212769e-02
-1.074905544519424438e-01
-9.585335105657577515e-02
-1.144213229417800903e-01
-1.057667508721351624e-01
-1.104068160057067871e-01
-1.119588986039161682e-01
-1.366005539894104004e-01
-1.113098412752151489e-01
-1.035346463322639465e-01
-9.885764867067337036e-02
-1.065287292003631592e-01
-8.955188840627670288e-02
-1.130514219403266907e-01
-7.349942624568939209e-02
-1.319414973258972168e-01
-1.378404200077056885e-01
-9.035774320363998413e-02
-1.324151605367660522e-01
-1.402424871921539307e-01
-1.510822623968124390e-01
-1.572103351354598999e-01
-1.672055721282958984e-01
-1.578526794910430908e-01
-1.638151705265045166e-01
-1.580792814493179321e-01
-1.555673480033874512e-01
-1.708487272262573242e-01
-1.583685874938964844e-01
-6.173976510763168335e-02
-1.695454418659210205e-01
-1.195478662848472595e-01
-2.668002806603908539e-02
-2.250462211668491364e-02
-3.677153959870338440e-02
1.399655342102050781e-01
1.455133855342864990e-01
1.541150212287902832e-01
1.622505784034729004e-01
1.752175688743591309e-01
1.740792989730834961e-01
1.584037989377975464e-01
1.780974417924880981e-01
1.833045035600662231e-01
1.718667000532150269e-01
1.812865734100341797e-01
1.822183877229690552e-01
-1.758591681718826294e-01
-1.833064854145050049e-01
-1.875592917203903198e-01
-1.900816857814788818e-01
-1.914532780647277832e-01
-1.932958364486694336e-01
-1.911139339208602905e-01
-1.922900229692459106e-01
-1.932711899280548096e-01
-1.934934705495834351e-01
-1.946265995502471924e-01
-1.959214210510253906e-01
-1.928286701440811157e-01
-1.899216622114181519e-01
1.925922334194183350e-01
1.708806008100509644e-01
1.750013083219528198e-01
1.941442489624023438e-01
1.913889795541763306e-01
1.802671551704406738e-01
1.933187842369079590e-01
-4.231109470129013062e-02
1.934192478656768799e-01
1.915175318717956543e-01
1.920174509286880493e-01
1.628330200910568237e-01
1.879313886165618896e-01
-1.925158500671386719e-01
-1.910733282566070557e-01
-1.794424802064895630e-01
1.875725984573364258e-01
-1.837903112173080444e-01
1.144118234515190125e-01
1.855939328670501709e-01
1.897471547126770020e-01
1.812527775764465332e-01
1.821577399969100952e-01
1.457551568746566772e-01
1.837346702814102173e-01
1.786677092313766479e-01
1.786350607872009277e-01
1.791987866163253784e-01
1.764370203018188477e-01
-1.444174647331237793e-01
1.644118726253509521e-01
1.547276079654693604e-01
1.768228560686111450e-01
-1.270240247249603271e-01
-1.347547620534896851e-01
-8.205448836088180542e-02
5.829817056655883789e-02
-9.478995203971862793e-02
1.856718808412551880e-01
-1.018456742167472839e-01
-6.690189242362976074e-02
1.700264066457748413e-01
1.382346749305725098e-01
-4.055421799421310425e-03
1.776835620403289795e-01
-8.611345291137695312e-02
-7.645813375711441040e-02
1.576290875673294067e-01
1.529760956764221191e-01
1.632166355848312378e-01
1.694668829441070557e-01
1.646130383014678955e-01
1.692524850368499756e-01
1.779402792453765869e-01
1.719197481870651245e-01
1.792770922183990479e-01
1.762707233428955078e-01
1.758409291505813599e-01
1.792414486408233643e-01
1.879215538501739502e-01
1.891327649354934692e-01
1.631858795881271362e-01
1.856616437435150146e-01
1.734042912721633911e-01
1.929477900266647339e-01
1.948880255222320557e-01
1.920283883810043335e-01
1.925921887159347534e-01
1.926573812961578369e-01
1.935176849365234375e-01
1.962503641843795776e-01
1.913193017244338989e-01
1.932374686002731323e-01
1.963238120079040527e-01
1.955247074365615845e-01
1.951611191034317017e-01
1.925326287746429443e-01
1.977829933166503906e-01
1.971635073423385620e-01
1.941860616207122803e-01
1.572125107049942017e-01
1.987503618001937866e-01
1.950565874576568604e-01
1.821157485246658325e-01
1.747108101844787598e-01
1.713954955339431763e-01
1.688183248043060303e-01
1.799616068601608276e-01
1.674400866031646729e-01
1.660566776990890503e-01
1.753590106964111328e-01
1.652859896421432495e-01
1.660547554492950439e-01
1.704409271478652954e-01
1.681681722402572632e-01
1.587036699056625366e-01
1.331116706132888794e-01
1.577824950218200684e-01
1.626739501953125000e-01
1.603666543960571289e-01
1.498125493526458740e-01
1.497145742177963257e-01
1.532256305217742920e-01
1.490372866392135620e-01
1.326697766780853271e-01
1.417185962200164795e-01
1.533034294843673706e-01
1.365825086832046509e-01
1.269864886999130249e-01
1.287220269441604614e-01
1.319417655467987061e-01
1.317526996135711670e-01
1.359002739191055298e-01
1.289833784103393555e-01
1.310906559228897095e-01
1.128675565123558044e-01
1.122534200549125671e-01
1.256484985351562500e-01
1.164839714765548706e-01
1.212085112929344177e-01
1.056324541568756104e-01
9.988946467638015747e-02
1.023404970765113831e-01
1.052206233143806458e-01
1.046716049313545227e-01
9.766167402267456055e-02
9.091331809759140015e-02
8.015437424182891846e-02
9.224630147218704224e-02
9.488498419523239136e-02
8.845830708742141724e-02
8.431307971477508545e-02
8.302560448646545410e-02
7.111310213804244995e-02
6.421534717082977295e-02
5.578309297561645508e-02
5.822828412055969238e-02
7.442555576562881470e-02
6.523101776838302612e-02
6.962957978248596191e-02
5.802047997713088989e-02
4.944382607936859131e-02
4.708373546600341797e-02
4.006437584757804871e-02
4.992319643497467041e-02
4.392726346850395203e-02
4.517728462815284729e-02
3.188198059797286987e-02
3.776504099369049072e-02
3.745277971029281616e-02
2.217506431043148041e-02
1.124009303748607635e-02
1.282627042382955551e-02
2.888620458543300629e-02
1.894341036677360535e-02
2.947767032310366631e-03
5.248495843261480331e-03
4.177531693130731583e-03
4.242251161485910416e-03
-5.103221163153648376e-03
-1.207062043249607086e-02
-1.179205067455768585e-02
-1.517214253544807434e-02
-2.148570492863655090e-02
-1.875602081418037415e-02
-1.440874300897121429e-02
-2.405394800007343292e-02
-2.714274264872074127e-02
-3.293971344828605652e-02
-3.299167379736900330e-02
-3.507937863469123840e-02
-3.924886882305145264e-02
-2.695384807884693146e-02
-3.522720560431480408e-02
-3.519905731081962585e-02
-4.155072569847106934e-02
-4.522857815027236938e-02
-5.231576412916183472e-02
-5.551758036017417908e-02
-4.852679744362831116e-02
-4.739468917250633240e-02
-4.777385666966438293e-02
-4.866845160722732544e-02
-5.181719735264778137e-02
-5.186152085661888123e-02
-5.731219053268432617e-02
-5.995760858058929443e-02
-5.611312761902809143e-02
-5.595660209655761719e-02
-5.470238998532295227e-02
-5.904517695307731628e-02
-5.926017463207244873e-02
-5.690762028098106384e-02
-6.491661071777343750e-02
-6.889558583498001099e-02
-6.906846910715103149e-02
-6.599206477403640747e-02
-6.729023903608322144e-02
-7.310698926448822021e-02
-6.750674545764923096e-02
-7.052249461412429810e-02
-6.729189306497573853e-02
-7.748947292566299438e-02
-7.240470498800277710e-02
-7.605317980051040649e-02
-8.120862394571304321e-02
-8.922124654054641724e-02
-8.624283224344253540e-02
-7.920026034116744995e-02
-9.354286640882492065e-02
-9.477984160184860229e-02
-8.740355819463729858e-02
-7.266014814376831055e-02
-9.045456349849700928e-02
-9.103587269783020020e-02
-9.457723051309585571e-02
-9.976185858249664307e-02
-1.133996099233627319e-01
-1.363710612058639526e-01
-1.417178809642791748e-01
-1.195245236158370972e-01
-1.269276589155197144e-01
-1.381363421678543091e-01
-1.300693601369857788e-01
-1.364548057317733765e-01
-1.311863064765930176e-01
-1.197393536567687988e-01
-8.542184531688690186e-02
-1.035383641719818115e-01
-8.846788108348846436e-02
-8.725288510322570801e-02
7.492499053478240967e-02
6.312974542379379272e-02
1.175006404519081116e-01
1.191542893648147583e-01
1.457982063293457031e-01
1.549972742795944214e-01
1.645324975252151489e-01
1.541240960359573364e-01
1.532263755798339844e-01
1.445897370576858521e-01
1.575331091880798340e-01
1.288164854049682617e-01
-1.643243730068206787e-01
-1.766584366559982300e-01
-1.693898439407348633e-01
-1.703963130712509155e-01
-1.844280064105987549e-01
-1.841394156217575073e-01
-1.898422837257385254e-01
-1.866211593151092529e-01
-1.878572255373001099e-01
-1.850191950798034668e-01
-1.821241974830627441e-01
-1.865040361881256104e-01
-1.862898916006088257e-01
1.782164573669433594e-01
-1.818009912967681885e-01
1.641313135623931885e-01
1.867040395736694336e-01
1.886933147907257080e-01
1.887565702199935913e-01
1.863382905721664429e-01
1.853495240211486816e-01
1.851786077022552490e-01
1.848712861537933350e-01
1.824398487806320190e-01
1.830537170171737671e-01
1.815445572137832642e-01
1.819574236869812012e-01
1.809826195240020752e-01
-1.812548190355300903e-01
1.709061264991760254e-01
1.642218977212905884e-01
-1.710908412933349609e-01
-1.789099723100662231e-01
-1.771626770496368408e-01
-1.767529845237731934e-01
-1.723513752222061157e-01
-1.718615889549255371e-01
-1.629277765750885010e-01
-1.568313390016555786e-01
1.696818619966506958e-01
1.701589375734329224e-01
-1.084316521883010864e-01
-1.435993313789367676e-01
1.762903332710266113e-01
1.723887771368026733e-01
1.840749382972717285e-01
1.799660772085189819e-01
1.562818586826324463e-01
1.823923885822296143e-01
1.771884262561798096e-01
1.775196194648742676e-01
1.784751415252685547e-01
1.758990436792373657e-01
1.743848472833633423e-01
1.789100468158721924e-01
1.782429665327072144e-01
1.804867088794708252e-01
1.739181727170944214e-01
1.735108792781829834e-01
1.626888811588287354e-01
-9.470139443874359131e-02
1.519283652305603027e-01
1.651094406843185425e-01
1.667614728212356567e-01
-6.310774385929107666e-02
-1.054419800639152527e-01
-9.845577180385589600e-02
-9.216514229774475098e-02
-1.188996061682701111e-01
-1.048733592033386230e-01
-1.007196307182312012e-01
-1.058954447507858276e-01
-1.154245957732200623e-01
-1.144882440567016602e-01
-9.575214982032775879e-02
-9.518139809370040894e-02
-3.858466446399688721e-02
1.730534583330154419e-01
-4.260555282235145569e-02
1.054006963968276978e-01
1.794993877410888672e-01
1.851221621036529541e-01
1.840827614068984985e-01
1.858545988798141479e-01
1.843254864215850830e-01
1.850006878376007080e-01
1.806289702653884888e-01
1.803546249866485596e-01
1.891175806522369385e-01
1.842894554138183594e-01
1.844304651021957397e-01
1.854387819766998291e-01
1.769873797893524170e-01
1.760769188404083252e-01
1.745574772357940674e-01
1.732707470655441284e-01
7.761114835739135742e-02
3.451543301343917847e-02
4.820079542696475983e-03
7.362397015094757080e-02
9.572145342826843262e-02
1.278498470783233643e-01
8.556138724088668823e-02
1.238181442022323608e-01
1.243191137909889221e-01
1.278859376907348633e-01
1.189911961555480957e-01
9.053763747215270996e-02
1.571325659751892090e-01
1.515560001134872437e-01
1.240734308958053589e-01
1.277994811534881592e-01
1.607509404420852661e-01
1.610012799501419067e-01
1.613202244043350220e-01
1.757323443889617920e-01
1.908622682094573975e-01
1.797636598348617554e-01
1.749878078699111938e-01
1.856269091367721558e-01
1.870604753494262695e-01
1.830390691757202148e-01
1.597353219985961914e-01
1.690125465393066406e-01
1.907774358987808228e-01
1.816605627536773682e-01
1.734467893838882446e-01
1.876997649669647217e-01
1.927243173122406006e-01
1.726953834295272827e-01
9.289332479238510132e-02
1.444084495306015015e-01
1.916339397430419922e-01
1.925562620162963867e-01
1.307260543107986450e-01
1.520697474479675293e-01
1.693552434444427490e-01
1.744624823331832886e-01
1.758541166782379150e-01
1.760665327310562134e-01
1.908516734838485718e-01
1.722213476896286011e-01
1.582167148590087891e-01
1.593247652053833008e-01
1.730833351612091064e-01
1.729701012372970581e-01
1.756560504436492920e-01
1.808377057313919067e-01
1.842091828584671021e-01
1.663952916860580444e-01
1.515090614557266235e-01
1.511556059122085571e-01
1.443121284246444702e-01
1.586701273918151855e-01
1.680563390254974365e-01
1.603952944278717041e-01
1.430850028991699219e-01
1.375576704740524292e-01
1.413798183202743530e-01
1.264694631099700928e-01
1.384358108043670654e-01
1.343612670898437500e-01
1.352936327457427979e-01
1.219573095440864563e-01
1.089724302291870117e-01
1.151185035705566406e-01
1.072322949767112732e-01
1.090038940310478210e-01
1.094683408737182617e-01
1.028483808040618896e-01
1.081126406788825989e-01
8.824538439512252808e-02
8.185742795467376709e-02
8.627229183912277222e-02
7.973013073205947876e-02
6.575039029121398926e-02
6.317050755023956299e-02
5.110301449894905090e-02
6.177799776196479797e-02
3.271771222352981567e-02
2.129711210727691650e-02
2.364658378064632416e-02
2.793742343783378601e-02
2.939732000231742859e-02
1.923079788684844971e-02
1.619835384190082550e-02
1.348289381712675095e-02
-8.271598257124423981e-03
-1.820439472794532776e-02
-1.633604988455772400e-02
-1.213652733713388443e-02
-1.303020678460597992e-02
-1.254955120384693146e-02
-1.652303524315357208e-02
-1.150773279368877411e-02
-2.393709309399127960e-02
-4.088690876960754395e-02
-4.243972152471542358e-02
-5.091985315084457397e-02
-6.224662065505981445e-02
-4.618527740240097046e-02
-5.038628354668617249e-02
-4.603778198361396790e-02
-4.895690083503723145e-02
-5.269134789705276489e-02
-5.233667790889739990e-02
-6.040656939148902893e-02
-6.733924150466918945e-02
-6.238278001546859741e-02
-5.699111893773078918e-02
-5.212670192122459412e-02
-5.814075469970703125e-02
-6.040668860077857971e-02
-6.645391881465911865e-02
-7.453756034374237061e-02
-8.189079165458679199e-02
-8.052121102809906006e-02
-7.735326886177062988e-02
-8.290046453475952148e-02
-9.339959174394607544e-02
-9.552578628063201904e-02
-1.006581559777259827e-01
-1.082543209195137024e-01
-1.183556169271469116e-01
-1.223148927092552185e-01
-1.115010827779769897e-01
-1.155761256814002991e-01
-1.267662346363067627e-01
-1.313735842704772949e-01
-1.386656910181045532e-01
-1.543785929679870605e-01
-1.647805720567703247e-01
-1.655009090900421143e-01
-1.586355268955230713e-01
-1.513776183128356934e-01
-1.540137976408004761e-01
-1.650184988975524902e-01
-1.734541654586791992e-01
-1.755946427583694458e-01
-1.764675378799438477e-01
-1.886105239391326904e-01
-1.750127524137496948e-01
-1.707733571529388428e-01
-1.640613824129104614e-01
-1.599567830562591553e-01
-1.530636698007583618e-01
-1.592355221509933472e-01
-1.343991309404373169e-01
-1.448065191507339478e-01
-1.446239948272705078e-01
-1.210664957761764526e-01
-1.261649727821350098e-01
-1.449547111988067627e-01
-1.361328214406967163e-01
-7.235740870237350464e-02
-1.570870578289031982e-01
-1.577957421541213989e-01
-1.458780914545059204e-01
-1.735527813434600830e-01
-1.731487363576889038e-01
-1.866266280412673950e-01
-1.909942477941513062e-01
-1.932377517223358154e-01
-1.917931437492370605e-01
-1.888884752988815308e-01
-1.896502226591110229e-01
-1.836833208799362183e-01
-1.884397715330123901e-01
-1.913599371910095215e-01
-1.096170991659164429e-01
-1.920823007822036743e-01
-1.850776970386505127e-01
3.869621083140373230e-02
-1.714539229869842529e-01
-1.620889604091644287e-01
1.593829840421676636e-01
1.705404818058013916e-01
1.671458333730697632e-01
1.847108006477355957e-01
1.702490746974945068e-01
1.874897181987762451e-01
1.888807117938995361e-01
1.924386918544769287e-01
1.883070021867752075e-01
-1.824825555086135864e-01
-9.589248895645141602e-02
1.699369698762893677e-01
-1.949557512998580933e-01
-1.950788646936416626e-01
-1.944845914840698242e-01
-1.931171417236328125e-01
-1.945736110210418701e-01
-1.949458867311477661e-01
-1.950022727251052856e-01
-1.945367604494094849e-01
-1.900056749582290649e-01
-1.937353312969207764e-01
1.639446914196014404e-01
-1.938205361366271973e-01
-1.744570434093475342e-01
1.744679361581802368e-01
1.937915533781051636e-01
1.774658113718032837e-01
1.806377321481704712e-01
1.937112510204315186e-01
1.931460499763488770e-01
1.649027019739151001e-01
1.805299371480941772e-01
-1.858287453651428223e-01
-1.801013201475143433e-01
1.855931282043457031e-01
1.676907688379287720e-01
-1.928215026855468750e-01
-1.938627660274505615e-01
-1.925936937332153320e-01
-1.928771883249282837e-01
-1.927641481161117554e-01
1.876750588417053223e-01
-1.907654404640197754e-01
1.728821694850921631e-01
1.944119483232498169e-01
1.953754127025604248e-01
1.962639540433883667e-01
1.965793669223785400e-01
1.934998035430908203e-01
1.962108314037322998e-01
1.943544745445251465e-01
1.890746802091598511e-01
1.935292184352874756e-01
1.916649490594863892e-01
1.649056226015090942e-01
-1.785250604152679443e-01
-1.845016777515411377e-01
1.898599714040756226e-01
1.927485764026641846e-01
1.835351735353469849e-01
1.914147883653640747e-01
1.900944262742996216e-01
1.917280703783035278e-01
1.867266297340393066e-01
1.777083575725555420e-01
1.810618042945861816e-01
1.879881322383880615e-01
1.700340956449508667e-01
1.765933036804199219e-01
1.717914491891860962e-01
1.803260445594787598e-01
1.832248717546463013e-01
1.371441334486007690e-01
1.678298413753509521e-01
1.874486953020095825e-01
1.564346849918365479e-01
1.263941824436187744e-01
9.660572558641433716e-02
-2.374528348445892334e-02
8.823425322771072388e-02
1.270549595355987549e-01
1.468152105808258057e-01
8.660231530666351318e-02
1.433941721916198730e-01
1.482666879892349243e-01
1.482038944959640503e-01
1.527160108089447021e-01
1.473365724086761475e-01
1.559545397758483887e-01
1.611883789300918579e-01
1.694236099720001221e-01
1.526575684547424316e-01
1.747627854347229004e-01
1.842304021120071411e-01
1.604828983545303345e-01
1.740381717681884766e-01
1.877515465021133423e-01
1.878949850797653198e-01
1.729329973459243774e-01
1.879696547985076904e-01
1.866448372602462769e-01
1.899790167808532715e-01
1.906368732452392578e-01
1.714707612991333008e-01
1.805207878351211548e-01
1.646358519792556763e-01
1.703569293022155762e-01
1.665850281715393066e-01
1.379528492689132690e-01
1.374336332082748413e-01
1.267958432435989380e-01
1.296400129795074463e-01
1.138722822070121765e-01
1.445965170860290527e-01
1.446150988340377808e-01
1.336466670036315918e-01
1.430416852235794067e-01
1.388337165117263794e-01
1.388547271490097046e-01
1.433334350585937500e-01
1.490180790424346924e-01
1.450581252574920654e-01
1.437510102987289429e-01
1.125191673636436462e-01
1.257516145706176758e-01
1.383104771375656128e-01
1.403218805789947510e-01
1.442170888185501099e-01
1.457242369651794434e-01
1.398494392633438110e-01
1.252160668373107910e-01
1.355831325054168701e-01
1.207006797194480896e-01
1.402461230754852295e-01
1.283434331417083740e-01
1.381147950887680054e-01
1.267139166593551636e-01
1.287415921688079834e-01
1.411953568458557129e-01
1.390184462070465088e-01
1.296344399452209473e-01
1.279345005750656128e-01
1.275444328784942627e-01
1.221851035952568054e-01
1.153500974178314209e-01
1.093326583504676819e-01
1.176373362541198730e-01
1.139648929238319397e-01
1.107746362686157227e-01
1.079604253172874451e-01
1.023089736700057983e-01
1.150196865200996399e-01
9.794981777667999268e-02
9.393619745969772339e-02
9.185571223497390747e-02
7.699929177761077881e-02
7.764936983585357666e-02
6.225987896323204041e-02
7.725873589515686035e-02
6.316378712654113770e-02
5.612946301698684692e-02
5.321267992258071899e-02
4.721802845597267151e-02
4.530211910605430603e-02
3.092177957296371460e-02
2.479655481874942780e-02
2.439985051751136780e-02
9.998997673392295837e-03
5.778557155281305313e-03
2.500993665307760239e-03
4.409642424434423447e-03
1.679685665294528008e-04
-1.814217772334814072e-03
-3.869123524054884911e-03
-1.201354619115591049e-02
-2.269632183015346527e-02
-3.847068548202514648e-02
-4.518646001815795898e-02
-5.043795704841613770e-02
-6.026811152696609497e-02
-5.370080843567848206e-02
-6.466177105903625488e-02
-5.238110572099685669e-02
-6.289625167846679688e-02
-6.291256844997406006e-02
-7.045367360115051270e-02
-8.348507434129714966e-02
-8.481216430664062500e-02
-9.077179431915283203e-02
-7.285907864570617676e-02
-7.508924603462219238e-02
-7.891650497913360596e-02
-8.700618147850036621e-02
-9.360952675342559814e-02
-1.007257699966430664e-01
-9.856210649013519287e-02
-9.316492080688476562e-02
-9.295318275690078735e-02
-9.412946552038192749e-02
-1.004511341452598572e-01
-1.012330725789070129e-01
-1.039565801620483398e-01
-1.074315160512924194e-01
-1.173383817076683044e-01
-1.033632680773735046e-01
-1.067524254322052002e-01
-1.089718788862228394e-01
-1.086080744862556458e-01
-1.160955503582954407e-01
-1.066028773784637451e-01
-1.114413812756538391e-01
-1.167459413409233093e-01
-1.118975654244422913e-01
-1.106330230832099915e-01
-1.053451150655746460e-01
-1.170222908258438110e-01
-1.213352382183074951e-01
-1.201758161187171936e-01
-1.218328326940536499e-01
-1.265192180871963501e-01
-1.248247474431991577e-01
-1.206918060779571533e-01
-1.217509508132934570e-01
-1.232081353664398193e-01
-1.252282112836837769e-01
-1.289920955896377563e-01
-1.305909454822540283e-01
-1.343126446008682251e-01
-1.357078403234481812e-01
-1.347278356552124023e-01
-1.331013739109039307e-01
-1.357908993959426880e-01
-1.392403393983840942e-01
-1.466050595045089722e-01
-1.481090188026428223e-01
-1.532334387302398682e-01
-1.523679494857788086e-01
-1.524121463298797607e-01
-1.512410044670104980e-01
-1.573364138603210449e-01
-1.548475325107574463e-01
-1.644640564918518066e-01
-1.570626497268676758e-01
-1.667755544185638428e-01
-1.612028628587722778e-01
-1.686202883720397949e-01
-1.747352778911590576e-01
-1.647772639989852905e-01
-1.805165708065032959e-01
-1.769387125968933105e-01
-1.761419624090194702e-01
-1.804597377777099609e-01
-1.836092323064804077e-01
-1.862285435199737549e-01
-1.799739599227905273e-01
-1.770360469818115234e-01
-1.818852871656417847e-01
-1.770754605531692505e-01
-1.804722994565963745e-01
-1.175598055124282837e-01
-1.941097825765609741e-01
-1.865636557340621948e-01
-7.256610691547393799e-02
-1.832576096057891846e-01
-1.036897003650665283e-01
1.291588842868804932e-01
-1.837372481822967529e-01
-7.529599964618682861e-02
-2.862235158681869507e-02
-3.175795078277587891e-02
-1.770747303962707520e-01
-1.686581075191497803e-01
-1.938593685626983643e-01
-1.922679096460342407e-01
-1.933185458183288574e-01
-1.946920156478881836e-01
-1.936074495315551758e-01
-1.931234598159790039e-01
-1.925748735666275024e-01
-1.941825151443481445e-01
-1.938240081071853638e-01
-3.956906870007514954e-02
-1.957723498344421387e-01
-1.947040408849716187e-01
-1.904676258563995361e-01
-1.905649155378341675e-01
-1.952597051858901978e-01
-1.945867687463760376e-01
-1.934592574834823608e-01
-1.925979703664779663e-01
-8.835104852914810181e-02
-1.795848160982131958e-01
-1.930676847696304321e-01
-1.907142698764801025e-01
-1.822056025266647339e-01
-1.917760968208312988e-01
1.869076788425445557e-01
1.926048696041107178e-01
1.675460487604141235e-01
1.924781799316406250e-01
1.938405185937881470e-01
1.952275186777114868e-01
1.962990015745162964e-01
1.957201212644577026e-01
1.931024044752120972e-01
1.945804953575134277e-01
1.897750347852706909e-01
1.927661299705505371e-01
-1.692876666784286499e-01
-1.770871579647064209e-01
-1.945028454065322876e-01
-1.928434520959854126e-01
-1.933195441961288452e-01
-1.774825155735015869e-01
-1.906029433012008667e-01
-1.879337579011917114e-01
1.353219151496887207e-02
-1.530496478080749512e-01
-1.674257218837738037e-01
-1.721824705600738525e-01
1.860975325107574463e-01
1.955862492322921753e-01
1.957069635391235352e-01
1.930484026670455933e-01
1.946623325347900391e-01
1.941547244787216187e-01
1.919507682323455811e-01
1.905350834131240845e-01
1.880990862846374512e-01
1.902686804533004761e-01
1.896839439868927002e-01
1.908159255981445312e-01
1.864555776119232178e-01
1.640776097774505615e-01
1.860223561525344849e-01
1.719089448451995850e-01
-1.494682878255844116e-01
-1.503597199916839600e-01
-3.450475633144378662e-02
-1.266825348138809204e-01
-9.948020428419113159e-02
-1.620243489742279053e-02
-6.634936481714248657e-02
-1.209334470331668854e-03
1.691836267709732056e-01
1.731512099504470825e-01
4.733600467443466187e-02
1.307825893163681030e-01
1.516740769147872925e-01
1.764270067214965820e-01
1.745540499687194824e-01
1.715084165334701538e-01
1.612998247146606445e-01
1.511184126138687134e-01
1.566974669694900513e-01
1.715321987867355347e-01
1.853282004594802856e-01
1.828391999006271362e-01
1.681616306304931641e-01
1.878084987401962280e-01
1.949704885482788086e-01
1.911557316780090332e-01
1.813157051801681519e-01
1.878861933946609497e-01
1.824717074632644653e-01
1.299217194318771362e-01
1.774013042449951172e-01
1.793019622564315796e-01
1.902681440114974976e-01
1.401076614856719971e-01
1.420328915119171143e-01
1.376475840806961060e-01
1.472991555929183960e-01
1.212700158357620239e-01
1.511038839817047119e-01
1.338821500539779663e-01
1.885225325822830200e-01
1.480617672204971313e-01
1.744821518659591675e-01
1.779507100582122803e-01
1.619431227445602417e-01
1.734771430492401123e-01
1.564373821020126343e-01
1.710463464260101318e-01
1.724506616592407227e-01
1.662781983613967896e-01
1.522078812122344971e-01
1.501292884349822998e-01
1.509144306182861328e-01
1.566144973039627075e-01
1.723717153072357178e-01
1.719993650913238525e-01
1.685352772474288940e-01
1.579616963863372803e-01
1.534760892391204834e-01
1.517448723316192627e-01
1.310586482286453247e-01
1.416468918323516846e-01
1.366369873285293579e-01
1.280705481767654419e-01
1.222510561347007751e-01
1.219444125890731812e-01
1.146980002522468567e-01
1.085345447063446045e-01
1.210933700203895569e-01
1.141559630632400513e-01
1.172367781400680542e-01
1.125379130244255066e-01
1.028231084346771240e-01
9.463420510292053223e-02
9.858491271734237671e-02
1.072092950344085693e-01
8.941465616226196289e-02
9.440986067056655884e-02
8.022240549325942993e-02
8.516213297843933105e-02
6.549812853336334229e-02
5.916747823357582092e-02
8.963803201913833618e-02
7.160955667495727539e-02
7.251350581645965576e-02
6.295623630285263062e-02
6.097609549760818481e-02
5.997588112950325012e-02
4.268504679203033447e-02
4.495883733034133911e-02
5.293853580951690674e-02
4.572204872965812683e-02
3.959860280156135559e-02
4.204740002751350403e-02
4.837246611714363098e-02
4.470846056938171387e-02
3.439635038375854492e-02
2.772234939038753510e-02
3.688095510005950928e-02
3.406319022178649902e-02
2.837555482983589172e-02
2.643251977860927582e-02
4.247997328639030457e-02
3.077959641814231873e-02
2.584542334079742432e-02
1.514037139713764191e-02
1.771997474133968353e-02
2.108364924788475037e-02
1.972557790577411652e-02
2.981799654662609100e-02
2.573806419968605042e-02
2.239516004920005798e-02
9.286249987781047821e-03
5.810829345136880875e-03
1.038823928683996201e-02
1.210466213524341583e-02
4.497658461332321167e-03
1.550857722759246826e-02
5.324113648384809494e-03
8.658600971102714539e-03
-9.437200613319873810e-03
-1.232242584228515625e-02
-1.049296930432319641e-03
-6.759269163012504578e-04
-7.352854590862989426e-04
-3.361245151609182358e-03
-5.584194324910640717e-03
-6.401311606168746948e-03
-1.755815744400024414e-02
-2.287826687097549438e-02
-1.212990563362836838e-02
-2.348105423152446747e-02
-2.825771085917949677e-02
-1.922292448580265045e-02
-2.113804034888744354e-02
-1.933129690587520599e-02
-2.850817516446113586e-02
-3.161136060953140259e-02
-3.185573220252990723e-02
-3.301123529672622681e-02
-3.085371479392051697e-02
-2.856292016804218292e-02
-3.209322690963745117e-02
-4.289728775620460510e-02
-5.081712082028388977e-02
-4.951183125376701355e-02
-4.449681565165519714e-02
-4.570368677377700806e-02
-4.086157307028770447e-02
-4.241503030061721802e-02
-4.126574844121932983e-02
-4.936128854751586914e-02
-4.681633785367012024e-02
-4.666055738925933838e-02
-5.125953629612922668e-02
-4.238406196236610413e-02
-5.135199055075645447e-02
-4.922295734286308289e-02
-4.586261510848999023e-02
-4.156408458948135376e-02
-4.957687482237815857e-02
-4.109179973602294922e-02
-5.099930241703987122e-02
-4.251099377870559692e-02
-4.127097874879837036e-02
-5.651066079735755920e-02
-4.206546396017074585e-02
-2.738662995398044586e-02
-4.523058608174324036e-02
-2.254209294915199280e-02
-4.648713022470474243e-02
-4.617022350430488586e-02
-5.058445967733860016e-03
-3.838822012767195702e-03
-9.736550040543079376e-03
1.734251528978347778e-02
2.182883024215698242e-02
3.813062235713005066e-02
3.767167404294013977e-02
4.126104712486267090e-02
3.934380039572715759e-02
1.088647078722715378e-02
4.198987036943435669e-02
3.322599083185195923e-02
6.685032695531845093e-02
2.530353888869285583e-02
7.069954276084899902e-02
3.360040858387947083e-02
5.521847307682037354e-02
1.794878579676151276e-02
4.935882613062858582e-02
3.662423789501190186e-02
-8.387036621570587158e-02
-4.478922486305236816e-02
7.834476418793201447e-04
-1.741379648447036743e-01
-1.696676760911941528e-01
-1.733050644397735596e-01
-1.853913217782974243e-01
-1.931570321321487427e-01
-1.813789755105972290e-01
-1.144894510507583618e-01
-1.936653256416320801e-01
-1.900242269039154053e-01
6.713674962520599365e-02
1.502652186900377274e-02
1.209354959428310394e-03
6.854570657014846802e-02
1.784864217042922974e-01
1.927826851606369019e-01
1.948175728321075439e-01
1.955706179141998291e-01
1.942453533411026001e-01
1.937194019556045532e-01
1.947689056396484375e-01
1.944245696067810059e-01
1.938037872314453125e-01
1.944709122180938721e-01
1.942639201879501343e-01
1.946866363286972046e-01
1.944233775138854980e-01
1.944348216056823730e-01
-1.926239877939224243e-01
-1.901754140853881836e-01
-4.051868245005607605e-02
-1.687360256910324097e-01
-1.912368237972259521e-01
-1.916062682867050171e-01
-1.928278058767318726e-01
-1.919912695884704590e-01
-1.942727118730545044e-01
-1.933979690074920654e-01
-1.890781223773956299e-01
1.962054818868637085e-01
-1.531075686216354370e-01
1.706618666648864746e-01
1.950065493583679199e-01
1.913229823112487793e-01
1.884533613920211792e-01
1.896851062774658203e-01
1.936931610107421875e-01
1.940261721611022949e-01
1.951455175876617432e-01
1.929289251565933228e-01
1.936452835798263550e-01
1.944727748632431030e-01
1.924588382244110107e-01
1.938445121049880981e-01
1.938060820102691650e-01
1.942037343978881836e-01
-9.195128083229064941e-02
1.926069557666778564e-01
1.951598823070526123e-01
1.945430487394332886e-01
1.958191841840744019e-01
1.897021383047103882e-01
1.917065829038619995e-01
1.748149842023849487e-01
1.321098655462265015e-01
-1.538726091384887695e-01
-1.362423747777938843e-01
-1.454676985740661621e-01
-3.279519453644752502e-02
-3.874428197741508484e-02
1.890296041965484619e-01
1.915418207645416260e-01
1.723218113183975220e-01
1.679225116968154907e-01
1.928759217262268066e-01
1.941556036472320557e-01
1.897249668836593628e-01
1.880598813295364380e-01
1.888108104467391968e-01
1.860352009534835815e-01
1.825176477432250977e-01
1.754495054483413696e-01
1.911005377769470215e-01
1.813468188047409058e-01
1.623896509408950806e-01
1.819300502538681030e-01
1.825259327888488770e-01
1.818009316921234131e-01
1.696298867464065552e-01
1.765663921833038330e-01
1.682031452655792236e-01
1.600356847047805786e-01
1.517983973026275635e-01
1.505340933799743652e-01
1.499899327754974365e-01
1.536357104778289795e-01
1.573192328214645386e-01
1.581756919622421265e-01
1.585352718830108643e-01
1.500856727361679077e-01
1.544575393199920654e-01
1.457306742668151855e-01
1.473875492811203003e-01
1.534627079963684082e-01
1.575852036476135254e-01
1.570600122213363647e-01
1.519471704959869385e-01
1.419806182384490967e-01
1.533626019954681396e-01
1.418274194002151489e-01
1.240873783826828003e-01
1.455775499343872070e-01
1.408725678920745850e-01
1.502224057912826538e-01
1.282926648855209351e-01
1.544379591941833496e-01
1.524029970169067383e-01
1.567434072494506836e-01
1.276085227727890015e-01
1.155441254377365112e-01
1.296247541904449463e-01
1.197316274046897888e-01
1.107567623257637024e-01
1.152591556310653687e-01
1.230851560831069946e-01
1.161588355898857117e-01
1.006077006459236145e-01
9.227597713470458984e-02
7.819914817810058594e-02
7.913978397846221924e-02
7.777003943920135498e-02
8.601975440979003906e-02
7.120957970619201660e-02
6.047290563583374023e-02
6.087624281644821167e-02
5.766514316201210022e-02
5.006247386336326599e-02
5.156193301081657410e-02
3.126835823059082031e-02
7.817577570676803589e-03
4.006288014352321625e-03
-1.357518136501312256e-02
-1.364204473793506622e-02
1.957763731479644775e-02
7.593132089823484421e-03
-1.466429606080055237e-02
3.178107785061001778e-03
-1.820648461580276489e-02
-2.967032045125961304e-02
-2.606963552534580231e-02
-2.295796386897563934e-02
-3.184702992439270020e-02
-6.444489955902099609e-02
-3.523246943950653076e-02
-5.004974454641342163e-02
-2.895892225205898285e-02
-6.147791817784309387e-02
-6.929119676351547241e-02
-6.217494234442710876e-02
-8.393190056085586548e-02
-7.017935067415237427e-02
-9.099244326353073120e-02
-1.921438425779342651e-02
-6.448966264724731445e-02
-5.773646011948585510e-02
-8.155187964439392090e-02
-6.160012260079383850e-02
-6.361132115125656128e-02
-6.083077564835548401e-02
-5.711338669061660767e-02
-6.152204424142837524e-02
-6.085085123777389526e-02
-8.168595284223556519e-02
-8.952578157186508179e-02
-7.825954258441925049e-02
-6.403738260269165039e-02
-6.739474833011627197e-02
-7.887068390846252441e-02
-7.842677831649780273e-02
-7.955013960599899292e-02
-8.169355988502502441e-02
-7.812861353158950806e-02
-7.214650511741638184e-02
-7.619922608137130737e-02
-8.950906246900558472e-02
-1.017549186944961548e-01
-1.010574251413345337e-01
-8.475910872220993042e-02
-8.815915882587432861e-02
-8.204935491085052490e-02
-8.918688446283340454e-02
-8.797480165958404541e-02
-1.038186475634574890e-01
-1.102595329284667969e-01
-9.983973205089569092e-02
-9.628946334123611450e-02
-8.385411649942398071e-02
-8.948928117752075195e-02
-9.395358711481094360e-02
-9.816986322402954102e-02
-1.080483794212341309e-01
-1.068483591079711914e-01
-1.053056716918945312e-01
-9.967307001352310181e-02
-1.016573384404182434e-01
-1.132491976022720337e-01
-1.153231114149093628e-01
-1.140239387750625610e-01
-1.106090173125267029e-01
-1.200747191905975342e-01
-1.173347160220146179e-01
-1.126542687416076660e-01
-1.226257085800170898e-01
-1.394150108098983765e-01
-1.465900987386703491e-01
-1.506828218698501587e-01
-1.584896147251129150e-01
-1.657511293888092041e-01
-1.551285386085510254e-01
-1.473353207111358643e-01
-1.547311842441558838e-01
-1.600807011127471924e-01
-1.637839078903198242e-01
-1.647543013095855713e-01
-1.730973422527313232e-01
-1.632633060216903687e-01
-1.873275339603424072e-01
-1.716331839561462402e-01
-1.715902090072631836e-01
-1.829488873481750488e-01
-1.661500483751296997e-01
-1.758272647857666016e-01
-1.847089529037475586e-01
-1.834834516048431396e-01
-1.885759532451629639e-01
-1.836816221475601196e-01
-1.860906183719635010e-01
-1.746020466089248657e-01
-1.841217428445816040e-01
-1.884458363056182861e-01
-1.870243698358535767e-01
-1.864135265350341797e-01
-1.861596256494522095e-01
-1.859629154205322266e-01
-1.873603016138076782e-01
-1.807593107223510742e-01
-1.681513935327529907e-01
6.892538815736770630e-02
-1.405006647109985352e-01
-2.892190963029861450e-02
8.916402608156204224e-02
8.822566270828247070e-02
1.294464915990829468e-01
1.485228091478347778e-01
1.331338286399841309e-01
1.103428527712821960e-01
1.026738286018371582e-01
1.150718256831169128e-01
6.460298597812652588e-02
-1.422437578439712524e-01
-1.566175371408462524e-01
-3.821445256471633911e-02
-1.798541396856307983e-01
-1.678888499736785889e-01
-1.693580448627471924e-01
-1.841720491647720337e-01
-1.893829703330993652e-01
-1.885339617729187012e-01
-1.774982661008834839e-01
-1.802828907966613770e-01
-1.687100380659103394e-01
-1.708859801292419434e-01
-1.893503367900848389e-01
-1.477567404508590698e-01
-1.925811916589736938e-01
-1.907423585653305054e-01
-1.843657493591308594e-01
-1.885382086038589478e-01
-1.701395213603973389e-01
1.821260452270507812e-01
1.438180655241012573e-01
1.434637308120727539e-01
1.789960712194442749e-01
1.890013366937637329e-01
1.892522573471069336e-01
1.920798718929290771e-01
1.868704110383987427e-01
1.840063631534576416e-01
1.658967137336730957e-01
-1.736048161983489990e-01
-1.795663088560104370e-01
-1.809642463922500610e-01
-1.920364648103713989e-01
-1.920991241931915283e-01
-1.922731548547744751e-01
-1.917943656444549561e-01
1.784597039222717285e-01
-1.900001168251037598e-01
1.915386319160461426e-01
1.930589973926544189e-01
1.877883672714233398e-01
1.901338398456573486e-01
1.911818534135818481e-01
1.917785853147506714e-01
1.927224099636077881e-01
1.914033889770507812e-01
1.905547231435775757e-01
1.916135698556900024e-01
1.883288323879241943e-01
1.890529096126556396e-01
-1.855847984552383423e-01
1.910629868507385254e-01
1.905992031097412109e-01
1.921229809522628784e-01
-1.894211769104003906e-01
-1.765777170658111572e-01
-1.885847598314285278e-01
-1.796698272228240967e-01
-1.650832742452621460e-01
-1.332735568284988403e-01
-1.484751552343368530e-01
-1.165578216314315796e-01
-9.371654689311981201e-02
1.379322856664657593e-01
-3.749597351998090744e-03
-8.043955266475677490e-02
3.031320683658123016e-02
1.415921747684478760e-01
-2.576622739434242249e-02
1.292931884527206421e-01
8.290564268827438354e-02
1.316825449466705322e-01
-2.581655047833919525e-02
2.504591085016727448e-02
-4.603222012519836426e-02
1.214872449636459351e-01
1.031293347477912903e-01
1.017965674400329590e-01
1.180523633956909180e-01
1.322139352560043335e-01
1.019681692123413086e-01
9.525844454765319824e-02
1.101915836334228516e-01
1.323435604572296143e-01
1.312597841024398804e-01
1.068826839327812195e-01
1.196537539362907410e-01
1.327876150608062744e-01
1.050987839698791504e-01
1.160265207290649414e-01
1.231194362044334412e-01
1.282725781202316284e-01
1.258387267589569092e-01
1.396707743406295776e-01
1.342941820621490479e-01
1.152832657098770142e-01
1.146524325013160706e-01
1.118071824312210083e-01
1.449649631977081299e-01
1.305265277624130249e-01
7.332725822925567627e-02
1.085337176918983459e-01
7.359439879655838013e-02
1.370769441127777100e-01
1.253808289766311646e-01
1.393511444330215454e-01
1.238885968923568726e-01
1.033557653427124023e-01
4.072675853967666626e-02
5.748891085386276245e-02
1.210057064890861511e-01
1.265639513731002808e-01
1.124971956014633179e-01
9.691612422466278076e-02
8.752686530351638794e-02
1.034028679132461548e-01
8.498453348875045776e-02
6.113629043102264404e-02
5.556729063391685486e-02
7.709600031375885010e-02
7.780954241752624512e-02
5.789786204695701599e-02
5.041537061333656311e-02
6.263485550880432129e-02
4.376769065856933594e-02
3.490207716822624207e-02
4.911191761493682861e-02
4.486664012074470520e-02
5.460495129227638245e-02
2.949756570160388947e-02
2.024552971124649048e-02
9.820764884352684021e-03
1.875194907188415527e-02
2.637527883052825928e-02
1.403589919209480286e-02
1.571685634553432465e-02
1.912843436002731323e-02
9.361347183585166931e-03
-4.502066411077976227e-03
-2.216962911188602448e-02
-1.553094573318958282e-02
-4.927140660583972931e-03
-9.785083122551441193e-03
-9.374074637889862061e-03
-3.044106997549533844e-03
-3.929013386368751526e-03
-1.887100189924240112e-02
-2.697164565324783325e-02
-2.866461686789989471e-02
-3.481269255280494690e-02
-3.461865708231925964e-02
-2.491468191146850586e-02
-2.472036331892013550e-02
-2.944435924291610718e-02
-3.455081582069396973e-02
-4.652437567710876465e-02
-4.426762089133262634e-02
-3.738278523087501526e-02
-3.582094982266426086e-02
-3.563917428255081177e-02
-4.258012026548385620e-02
-3.556980565190315247e-02
-4.872056096792221069e-02
-4.860724881291389465e-02
-5.232789367437362671e-02
-5.302819237112998962e-02
-4.987437278032302856e-02
-4.489336162805557251e-02
-4.531037434935569763e-02
-4.636478424072265625e-02
-4.646093770861625671e-02
-5.499830842018127441e-02
-5.053470656275749207e-02
-5.618895217776298523e-02
-5.218835920095443726e-02
-4.897410422563552856e-02
-5.001302435994148254e-02
-4.765698313713073730e-02
-5.071667954325675964e-02
-4.890220239758491516e-02
-5.549020320177078247e-02
-4.577371105551719666e-02
-5.243958905339241028e-02
-4.882808774709701538e-02
-5.255757644772529602e-02
-5.248111113905906677e-02
-4.880373924970626831e-02
-5.149031430482864380e-02
-5.331098288297653198e-02
-4.937340691685676575e-02
-5.048083141446113586e-02
-4.934909939765930176e-02
-4.161474481225013733e-02
-5.269333347678184509e-02
-4.615191370248794556e-02
-5.216330662369728088e-02
-5.622326210141181946e-02
-5.679154023528099060e-02
-6.105490401387214661e-02
-5.798006430268287659e-02
-6.020832061767578125e-02
-6.784797459840774536e-02
-5.588697642087936401e-02
-5.986843630671501160e-02
-6.162923946976661682e-02
-7.450763881206512451e-02
-6.429923325777053833e-02
-7.458803802728652954e-02
-8.977780491113662720e-02
-9.406208992004394531e-02
-8.507499098777770996e-02
-8.902590721845626831e-02
-7.376713305711746216e-02
-1.156438812613487244e-01
-1.061341166496276855e-01
-8.298872411251068115e-02
-1.012949869036674500e-01
-8.366838842630386353e-02
-1.367991715669631958e-01
-9.794317930936813354e-02
-1.143797039985656738e-01
-1.618576943874359131e-01
-1.453304588794708252e-01
-1.567655652761459351e-01
-1.544284224510192871e-01
-1.605801135301589966e-01
-1.646288186311721802e-01
-1.492511481046676636e-01
-1.721055656671524048e-01
-1.451319605112075806e-01
-1.337974220514297485e-01
-4.924396052956581116e-02
-1.066838279366493225e-01
-1.109921857714653015e-01
1.061527207493782043e-01
1.067272275686264038e-01
1.464464217424392700e-01
1.146431192755699158e-01
1.710414141416549683e-01
1.676903069019317627e-01
1.609137654304504395e-01
1.728060692548751831e-01
1.596875339746475220e-01
1.565941721200942993e-01
1.725923866033554077e-01
1.350312726572155952e-03
-1.351053863763809204e-01
-1.526140719652175903e-01
-1.536690890789031982e-01
-1.412801295518875122e-01
-1.799956858158111572e-01
-1.767186969518661499e-01
-1.787183135747909546e-01
-1.728344410657882690e-01
-1.062820479273796082e-02
1.158467605710029602e-01
-1.903409659862518311e-01
-1.878383755683898926e-01
-1.808447092771530151e-01
4.266599565744400024e-02
-1.906691789627075195e-01
-1.892973631620407104e-01
-1.886704266071319580e-01
-1.881260126829147339e-01
-1.890545636415481567e-01
-1.873714625835418701e-01
-1.869418174028396606e-01
-1.623690873384475708e-01
1.773090660572052002e-01
1.917688101530075073e-01
1.908534169197082520e-01
1.889668256044387817e-01
6.645846366882324219e-02
1.895599514245986938e-01
1.762026399374008179e-01
1.914531588554382324e-01
1.907976269721984863e-01
1.898082196712493896e-01
1.883680522441864014e-01
1.867658644914627075e-01
-1.806032210588455200e-01
-1.792457550764083862e-01
1.893411427736282349e-01
-1.569699048995971680e-01
1.250267326831817627e-01
-1.727406233549118042e-01
-1.741252541542053223e-01
-1.861991584300994873e-01
-1.851030886173248291e-01
-1.853487193584442139e-01
-1.826573163270950317e-01
-1.673152744770050049e-01
-1.700110882520675659e-01
1.761038750410079956e-01
1.897655278444290161e-01
1.892292052507400513e-01
1.874346435070037842e-01
1.867867261171340942e-01
1.860530376434326172e-01
1.831811964511871338e-01
1.788830459117889404e-01
1.830064207315444946e-01
1.764068007469177246e-01
1.771020889282226562e-01
-1.724197119474411011e-01
1.790212839841842651e-01
1.791087985038757324e-01
1.780916303396224976e-01
-1.489294767379760742e-01
-1.565228253602981567e-01
-1.242557018995285034e-01
-8.711095899343490601e-02
1.840607821941375732e-01
1.772948801517486572e-01
-6.650741398334503174e-02
-2.030634135007858276e-02
9.216110408306121826e-02
8.452287316322326660e-02
6.094928085803985596e-02
1.069626063108444214e-01
6.533694267272949219e-02
8.044904470443725586e-02
3.570966050028800964e-02
3.887620940804481506e-02
1.087219938635826111e-01
7.725333422422409058e-02
7.920435070991516113e-02
9.017881006002426147e-02
1.098061576485633850e-01
1.166917532682418823e-01
1.379938125610351562e-01
1.286681890487670898e-01
1.489340662956237793e-01
1.522653847932815552e-01
1.296713501214981079e-01
1.485716551542282104e-01
1.494466364383697510e-01
1.329647898674011230e-01
1.525501757860183716e-01
1.422017216682434082e-01
1.590334177017211914e-01
1.344455331563949585e-01
1.318514049053192139e-01
1.382938623428344727e-01
1.175714060664176941e-01
1.211582198739051819e-01
1.116737574338912964e-01
1.285534054040908813e-01
1.248130425810813904e-01
1.120437979698181152e-01
1.190578415989875793e-01
1.110722124576568604e-01
1.154518574476242065e-01
1.179055124521255493e-01
1.011476293206214905e-01
9.219032526016235352e-02
8.004087209701538086e-02
8.824761211872100830e-02
7.391854375600814819e-02
1.013646051287651062e-01
8.448068797588348389e-02
1.025065928697586060e-01
7.721989601850509644e-02
7.667893916368484497e-02
5.375807732343673706e-02
5.539414286613464355e-02
9.356290102005004883e-02
8.074133843183517456e-02
9.575019031763076782e-02
8.183482289314270020e-02
6.766849756240844727e-02
7.103068381547927856e-02
6.213908270001411438e-02
2.734920196235179901e-02
4.895448312163352966e-02
5.664981156587600708e-02
5.228020623326301575e-02
3.312020376324653625e-02
1.912890560925006866e-02
2.409238740801811218e-02
1.988619938492774963e-02
1.858754083514213562e-02
2.694880962371826172e-02
2.624829858541488647e-02
2.532841078937053680e-02
1.493792631663382053e-03
-3.106508869677782059e-03
8.179059950634837151e-04
7.184542715549468994e-03
6.725887767970561981e-03
4.269673954695463181e-03
-5.080429837107658386e-03
-2.748465631157159805e-03
-2.026235871016979218e-02
-2.385235764086246490e-02
-1.360352523624897003e-02
-1.531971711665391922e-02
-1.913927309215068817e-02
-2.015241235494613647e-02
-1.676775142550468445e-02
-1.918051764369010925e-02
-2.074087969958782196e-02
-2.923541888594627380e-02
-2.461671456694602966e-02
-3.998438268899917603e-02
-3.665615990757942200e-02
-3.319608420133590698e-02
-3.343236818909645081e-02
-2.972843497991561890e-02
-3.610264509916305542e-02
-3.840322047472000122e-02
-3.894233331084251404e-02
-4.954432696104049683e-02
-5.687114968895912170e-02
-4.533674195408821106e-02
-4.552968591451644897e-02
-3.998173400759696960e-02
-4.253151640295982361e-02
-4.331286624073982239e-02
-3.762033581733703613e-02
-5.413202568888664246e-02
-5.070884898304939270e-02
-5.844468995928764343e-02
-5.842484533786773682e-02
-5.631902068853378296e-02
-7.070891559123992920e-02
-6.352922320365905762e-02
-6.952635198831558228e-02
-7.630599290132522583e-02
-8.513288944959640503e-02
-7.134931534528732300e-02
-7.187278568744659424e-02
-8.443760126829147339e-02
-8.863316476345062256e-02
-1.002874225378036499e-01
-1.033549532294273376e-01
-1.185158044099807739e-01
-1.130459830164909363e-01
-1.100915446877479553e-01
-1.020532920956611633e-01
-1.065735891461372375e-01
-1.047304719686508179e-01
-1.276405751705169678e-01
-1.296799778938293457e-01
-1.362066417932510376e-01
-1.436281800270080566e-01
-1.527639329433441162e-01
-1.397863030433654785e-01
-1.167212501168251038e-01
-1.623186916112899780e-01
-1.625202149152755737e-01
-1.651761531829833984e-01
-1.603328734636306763e-01
-1.670472323894500732e-01
-1.666632145643234253e-01
-1.657279282808303833e-01
-1.491694450378417969e-01
-1.657560020685195923e-01
-1.369055956602096558e-01
-1.491433382034301758e-01
-5.907150916755199432e-03
-1.809257864952087402e-01
3.456798195838928223e-02
3.845494985580444336e-02
2.675179950892925262e-02
6.472195684909820557e-02
-1.099299639463424683e-03
-1.694904826581478119e-02
2.691721171140670776e-02
-1.407672464847564697e-01
-1.728965789079666138e-01
-1.565579771995544434e-01
-1.784297376871109009e-01
-1.789667606353759766e-01
-1.814802289009094238e-01
-1.873340457677841187e-01
-1.853412836790084839e-01
-1.822401434183120728e-01
-1.808662563562393188e-01
-1.813521385192871094e-01
-1.833770275115966797e-01
-1.823411583900451660e-01
-1.732661128044128418e-01
-1.504333913326263428e-01
-1.723778694868087769e-01
3.605728596448898315e-02
1.571457087993621826e-01
1.644909530878067017e-01
8.354032039642333984e-02
1.723288148641586304e-01
1.748274266719818115e-01
1.794735044240951538e-01
1.813431680202484131e-01
1.678010225296020508e-01
1.836325228214263916e-01
1.791734993457794189e-01
1.748456358909606934e-01
1.669289618730545044e-01
1.757736653089523315e-01
-1.805455237627029419e-01
-1.758583486080169678e-01
-1.880290955305099487e-01
-1.225924789905548096e-01
-1.888855844736099243e-01
-1.887359768152236938e-01
-1.906207501888275146e-01
1.351633220911026001e-01
-1.913724392652511597e-01
-1.838887333869934082e-01
1.129157915711402893e-01
1.909083425998687744e-01
-1.816715002059936523e-01
1.619468629360198975e-01
1.632276922464370728e-01
-8.332012221217155457e-03
1.925245523452758789e-01
1.694315075874328613e-01
-8.521503210067749023e-02
-1.851657927036285400e-01
-1.878009587526321411e-01
-1.914223134517669678e-01
-1.901384890079498291e-01
-1.929241269826889038e-01
-1.868774145841598511e-01
-1.907818168401718140e-01
-1.595341414213180542e-01
-1.695200502872467041e-01
1.808066815137863159e-01
-1.926133334636688232e-01
-1.882107704877853394e-01
-1.805870532989501953e-01
1.939925551414489746e-01
1.912252902984619141e-01
1.938506513833999634e-01
1.923900246620178223e-01
1.921765506267547607e-01
1.908735632896423340e-01
1.926393508911132812e-01
1.927009075880050659e-01
1.925875693559646606e-01
1.921688169240951538e-01
1.926222443580627441e-01
1.911987215280532837e-01
1.887964010238647461e-01
1.635725200176239014e-01
-1.352879852056503296e-01
-6.091954931616783142e-02
-1.629944294691085815e-01
3.357861563563346863e-02
1.889622956514358521e-01
1.776942610740661621e-01
1.810028105974197388e-01
1.840213537216186523e-01
1.762005090713500977e-01
1.759045571088790894e-01
1.666958034038543701e-01
1.437412053346633911e-01
1.736081242561340332e-01
1.726294904947280884e-01
1.565519422292709351e-01
1.261204183101654053e-01
1.117688342928886414e-01
1.221437975764274597e-01
3.448028117418289185e-02
1.400950551033020020e-01
1.431484371423721313e-01
1.251717954874038696e-01
1.257791668176651001e-01
1.122545823454856873e-01
1.114304289221763611e-01
1.113804355263710022e-01
9.572055935859680176e-02
1.086985841393470764e-01
1.181750074028968811e-01
1.111978590488433838e-01
1.075359731912612915e-01
1.108843237161636353e-01
1.220965757966041565e-01
1.145470440387725830e-01
1.267035901546478271e-01
9.261256456375122070e-02
1.148346513509750366e-01
1.048525720834732056e-01
1.175058186054229736e-01
1.034755036234855652e-01
1.249745339155197144e-01
1.195692345499992371e-01
1.228902786970138550e-01
1.332675665616989136e-01
1.172141432762145996e-01
1.364375799894332886e-01
1.285835653543472290e-01
1.379781961441040039e-01
1.224570423364639282e-01
1.119026988744735718e-01
1.183087453246116638e-01
1.036221385002136230e-01
1.161651015281677246e-01
9.962741285562515259e-02
1.029368862509727478e-01
1.324666440486907959e-01
1.198110580444335938e-01
1.212545558810234070e-01
6.620515137910842896e-02
8.979684859514236450e-02
9.638687968254089355e-02
1.017701178789138794e-01
1.093764081597328186e-01
1.198211237788200378e-01
9.483535587787628174e-02
9.473219513893127441e-02
4.898910224437713623e-02
5.205795168876647949e-02
7.970768958330154419e-02
7.916437089443206787e-02
9.051139652729034424e-02
8.954802155494689941e-02
8.205738663673400879e-02
4.901174083352088928e-02
4.897744953632354736e-02
4.691539704799652100e-02
6.799272447824478149e-02
5.214289575815200806e-02
5.964256078004837036e-02
6.390209496021270752e-02
4.526310414075851440e-02
2.156911790370941162e-02
1.141323521733283997e-02
3.960248827934265137e-02
3.985940665006637573e-02
3.117202594876289368e-02
2.374592609703540802e-02
2.497174590826034546e-02
1.285465806722640991e-02
8.311474695801734924e-03
6.960537284612655640e-03
1.587698981165885925e-02
1.541405916213989258e-02
9.603312239050865173e-03
1.142702437937259674e-02
1.212449371814727783e-02
1.183507032692432404e-02
7.998724468052387238e-04
-4.239162430167198181e-03
-2.060345606878399849e-03
-6.815992761403322220e-03
-1.343575399369001389e-02
-1.283982396125793457e-02
-7.913731969892978668e-03
-1.375343929976224899e-02
-1.331415958702564240e-02
-1.711936295032501221e-02
-1.516430359333753586e-02
-2.685365453362464905e-02
-3.164686635136604309e-02
-3.627876564860343933e-02
-3.245754539966583252e-02
-3.872747719287872314e-02
-4.129675403237342834e-02
-5.059119686484336853e-02
-4.773666337132453918e-02
-5.185964331030845642e-02
-4.124144464731216431e-02
-5.481665953993797302e-02
-6.503660976886749268e-02
-5.649174749851226807e-02
-8.164983242750167847e-02
-8.070858567953109741e-02
-8.562974631786346436e-02
-1.179381906986236572e-01
-1.162271425127983093e-01
-1.117240637540817261e-01
-1.038321852684020996e-01
-1.298361420631408691e-01
-1.454304456710815430e-01
-1.252725422382354736e-01
-1.137912645936012268e-01
-3.112516552209854126e-02
-1.171135455369949341e-01
-5.211445316672325134e-02
-3.274416923522949219e-02
-8.118270337581634521e-02
-5.101209972053766251e-03
-4.197018593549728394e-02
-1.070932522416114807e-01
-3.983644023537635803e-02
-2.805620059370994568e-02
-2.637535892426967621e-02
-1.895761862397193909e-02
-1.254553496837615967e-01
-1.807422786951065063e-01
-7.354345172643661499e-02
-3.958928212523460388e-02
-1.755078434944152832e-01
-1.806491911411285400e-01
-1.781081855297088623e-01
-1.825235784053802490e-01
-1.842165142297744751e-01
-1.860095560550689697e-01
-1.875490993261337280e-01
-1.877199709415435791e-01
-1.874270588159561157e-01
-1.865477859973907471e-01
-4.368498548865318298e-02
-1.840269565582275391e-01
-1.866869628429412842e-01
1.436756104230880737e-01
1.735869199037551880e-01
1.336965560913085938e-01
1.834972798824310303e-01
1.854444891214370728e-01
1.874347925186157227e-01
1.906875520944595337e-01
1.852693110704421997e-01
1.890145540237426758e-01
1.900848597288131714e-01
1.894986778497695923e-01
1.900265961885452271e-01
1.861070543527603149e-01
1.880715042352676392e-01
1.873241066932678223e-01
1.909505873918533325e-01
1.894997954368591309e-01
-1.851811259984970093e-01
1.909878104925155640e-01
1.918483078479766846e-01
-1.852634400129318237e-01
-1.887202560901641846e-01
-1.860046088695526123e-01
-1.876759529113769531e-01
-1.863339841365814209e-01
-1.810645014047622681e-01
-1.795941144227981567e-01
-1.671199798583984375e-01
-1.756058633327484131e-01
1.701188236474990845e-01
1.681610345840454102e-01
1.682096868753433228e-01
-1.495515853166580200e-01
1.814223825931549072e-01
1.684563755989074707e-01
1.676390618085861206e-01
1.755819320678710938e-01
1.687876135110855103e-01
1.707630157470703125e-01
1.580262482166290283e-01
1.512616425752639771e-01
1.269047558307647705e-01
1.102267801761627197e-01
1.342822611331939697e-01
1.266790777444839478e-01
8.780907094478607178e-02
1.655176468193531036e-02
-4.653947055339813232e-02
-7.880344986915588379e-03
4.509647190570831299e-02
6.300128996372222900e-02
3.736670315265655518e-02
5.367520079016685486e-02
3.441523015499114990e-02
1.224491558969020844e-02
9.536257013678550720e-03
5.192192737013101578e-03
1.560090854763984680e-02
7.242888386826962233e-05
-2.170971222221851349e-02
-2.427165582776069641e-02
-5.368722602725028992e-03
-3.270901041105389595e-03
1.728574163280427456e-03
3.172633703798055649e-03
-8.402311243116855621e-03
-1.908923732116818428e-03
-1.356857270002365112e-02
2.418993040919303894e-03
-8.049110881984233856e-03
-1.647448167204856873e-02
-1.158331893384456635e-02
-2.026653289794921875e-02
-1.573926582932472229e-02
-2.541152015328407288e-02
-1.818787120282649994e-02
-1.639191992580890656e-02
-4.482981748878955841e-03
1.579248532652854919e-02
1.062565669417381287e-02
3.645021235570311546e-03
-3.612766414880752563e-02
-1.383529743179678917e-04
-9.049237705767154694e-03
8.881215006113052368e-03
1.779473572969436646e-02
1.968456618487834930e-02
5.115789826959371567e-03
3.685033880174160004e-03
-3.469820320606231689e-02
-3.084291331470012665e-02
-7.379548158496618271e-03
-7.388682570308446884e-03
-2.047994546592235565e-02
-2.860088832676410675e-02
-4.256182163953781128e-02
-3.206485882401466370e-02
-3.455837070941925049e-02
-4.847878590226173401e-02
-2.892731130123138428e-02
-3.343373909592628479e-02
-4.032175615429878235e-02
-4.837738722562789917e-02
-5.398304760456085205e-02
-5.823299288749694824e-02
-4.762020707130432129e-02
-4.068650677800178528e-02
-5.187489837408065796e-02
-3.700229525566101074e-02
-4.881909489631652832e-02
-5.058230087161064148e-02
-5.743249133229255676e-02
-5.115432664752006531e-02
-4.384443908929824829e-02
-5.451718717813491821e-02
-5.111109465360641479e-02
-5.590009316802024841e-02
-5.140555649995803833e-02
-5.226063728332519531e-02
-4.412829875946044922e-02
-4.889095202088356018e-02
-5.130616575479507446e-02
-5.299386754631996155e-02
-5.562522262334823608e-02
-5.188102275133132935e-02
-4.806937649846076965e-02
-4.634051397442817688e-02
-4.690149053931236267e-02
-4.933668673038482666e-02
-4.849153012037277222e-02
-5.014522373676300049e-02
-5.148208141326904297e-02
-4.948115721344947815e-02
-5.118813365697860718e-02
-4.894370213150978088e-02
-5.286569520831108093e-02
-5.152265727519989014e-02
-5.378976836800575256e-02
-5.223112553358078003e-02
-5.422803014516830444e-02
-5.506002530455589294e-02
-5.599412322044372559e-02
-5.184137821197509766e-02
-5.667880922555923462e-02
-5.283113569021224976e-02
-5.433657020330429077e-02
-5.984758958220481873e-02
-6.802854686975479126e-02
-6.536100804805755615e-02
-6.871464103460311890e-02
-6.716373562812805176e-02
-7.212619483470916748e-02
-7.725589722394943237e-02
-7.773614674806594849e-02
-8.542376011610031128e-02
-9.298481047153472900e-02
-8.225665241479873657e-02
-1.055012196302413940e-01
-9.770396351814270020e-02
-9.626252949237823486e-02
-1.044293567538261414e-01
-9.164334833621978760e-02
-1.376178115606307983e-01
-1.397877782583236694e-01
-1.276562362909317017e-01
-1.272120773792266846e-01
-1.237228289246559143e-01
-1.215864270925521851e-01
-1.060988605022430420e-01
-1.113256886601448059e-01
-5.110029503703117371e-02
-1.002020686864852905e-01
-3.900454938411712646e-02
-6.554684787988662720e-02
-4.199193418025970459e-02
-8.293444290757179260e-03
-1.524543017148971558e-01
-1.280249953269958496e-01
-5.654421821236610413e-02
-1.428245604038238525e-01
-1.873068511486053467e-01
-1.536027044057846069e-01
-1.712045073509216309e-01
-1.894036084413528442e-01
-1.767010837793350220e-01
-1.886815577745437622e-01
-1.882711648941040039e-01
-1.841140240430831909e-01
-1.902818679809570312e-01
-1.888819634914398193e-01
-1.884830594062805176e-01
-1.820009648799896240e-01
-1.843536794185638428e-01
1.713181734085083008e-01
-7.521145045757293701e-02
-1.925781965255737305e-01
1.625258326530456543e-01
1.813210248947143555e-01
-1.843322813510894775e-01
1.769687831401824951e-01
-8.808752894401550293e-02
-1.343325898051261902e-02
-1.805791258811950684e-01
5.726194754242897034e-02
-1.812563091516494751e-01
-1.607621610164642334e-01
-1.937957406044006348e-01
-1.699885129928588867e-01
-1.761990785598754883e-01
1.947173178195953369e-01
1.936174035072326660e-01
1.943265944719314575e-01
1.974520385265350342e-01
1.972235143184661865e-01
1.953924745321273804e-01
1.952620595693588257e-01
1.956600546836853027e-01
1.957795023918151855e-01
1.970659643411636353e-01
1.919757872819900513e-01
-1.741750091314315796e-01
-1.267987936735153198e-01
-1.950730085372924805e-01
-1.782204955816268921e-01
4.187567532062530518e-02
1.952171176671981812e-01
-1.929541975259780884e-01
-1.484434753656387329e-01
1.937357783317565918e-01
1.939426064491271973e-01
1.959615349769592285e-01
1.945319622755050659e-01
1.957091391086578369e-01
1.961953192949295044e-01
1.961119174957275391e-01
1.939159184694290161e-01
1.903411746025085449e-01
-8.429140597581863403e-02
-1.880750954151153564e-01
1.897667795419692993e-01
1.932132989168167114e-01
-1.346350312232971191e-01
-1.831560283899307251e-01
-1.575582176446914673e-01
1.963502913713455200e-01
1.960773319005966187e-01
1.947669386863708496e-01
1.928714066743850708e-01
1.936849504709243774e-01
1.918447613716125488e-01
1.924007385969161987e-01
1.907257586717605591e-01
1.949555575847625732e-01
1.938284933567047119e-01
1.894630193710327148e-01
1.920174211263656616e-01
1.936025619506835938e-01
1.952286660671234131e-01
1.918136179447174072e-01
1.911295354366302490e-01
1.963653564453125000e-01
1.942006200551986694e-01
1.874238848686218262e-01
1.738524436950683594e-01
1.817702800035476685e-01
1.826721429824829102e-01
1.783583462238311768e-01
1.759562641382217407e-01
1.713823974132537842e-01
1.676037162542343140e-01
1.660561114549636841e-01
1.788174808025360107e-01
1.740468591451644897e-01
1.711422353982925415e-01
1.593859642744064331e-01
1.580379009246826172e-01
1.692145019769668579e-01
1.693188250064849854e-01
1.746525168418884277e-01
1.732185333967208862e-01
1.500930935144424438e-01
1.779563575983047485e-01
1.636428982019424438e-01
1.434618234634399414e-01
1.644441485404968262e-01
1.690376400947570801e-01
1.676153987646102905e-01
1.462954133749008179e-01
1.600185185670852661e-01
1.663427501916885376e-01
1.595175117254257202e-01
1.596538573503494263e-01
1.601626724004745483e-01
1.640205532312393188e-01
1.546148210763931274e-01
1.448238939046859741e-01
1.518391668796539307e-01
1.547299921512603760e-01
1.488232314586639404e-01
1.377968788146972656e-01
1.413670778274536133e-01
1.362081021070480347e-01
1.465963274240493774e-01
1.406743824481964111e-01
1.311540901660919189e-01
1.340754181146621704e-01
1.221898570656776428e-01
1.280367374420166016e-01
1.220863685011863708e-01
1.288387924432754517e-01
1.258366554975509644e-01
1.122308373451232910e-01
1.053229868412017822e-01
1.094993129372596741e-01
1.030100584030151367e-01
9.736274182796478271e-02
1.020408421754837036e-01
1.006099656224250793e-01
9.719632565975189209e-02
9.169870615005493164e-02
8.627471327781677246e-02
8.743203431367874146e-02
8.160551637411117554e-02
7.184899598360061646e-02
6.017709150910377502e-02
5.628248304128646851e-02
6.743945181369781494e-02
3.472021594643592834e-02
2.332356944680213928e-02
3.612866997718811035e-02
2.535195834934711456e-02
3.172100335359573364e-02
1.429368928074836731e-02
1.753913238644599915e-02
1.356443390250205994e-02
-6.280344910919666290e-03
-9.897554293274879456e-03
-1.653352007269859314e-02
-1.655852980911731720e-02
-1.407620124518871307e-02
-1.932255551218986511e-02
-1.537332125008106232e-02
-1.904201507568359375e-02
-2.574880793690681458e-02
-3.609524667263031006e-02
-4.730435088276863098e-02
-4.908448830246925354e-02
-4.554701969027519226e-02
-3.899593651294708252e-02
-4.929212480783462524e-02
-4.465110227465629578e-02
-4.277637228369712830e-02
-3.767971321940422058e-02
-4.067856073379516602e-02
-4.802687093615531921e-02
-5.350905656814575195e-02
-4.621855914592742920e-02
-4.555367678403854370e-02
-4.843175783753395081e-02
-4.838572070002555847e-02
-4.423011839389801025e-02
-4.506782814860343933e-02
-5.156435444951057434e-02
-5.649574846029281616e-02
-5.763815343379974365e-02
-4.587088897824287415e-02
-5.351011455059051514e-02
-5.599902197718620300e-02
-5.763445794582366943e-02
-5.462669208645820618e-02
-5.595755204558372498e-02
-7.079209387302398682e-02
-6.035024300217628479e-02
-5.469547584652900696e-02
-5.445790663361549377e-02
-7.396587729454040527e-02
-6.418623775243759155e-02
-7.527349889278411865e-02
-8.533712476491928101e-02
-1.071181669831275940e-01
-8.605027943849563599e-02
-7.651663571596145630e-02
-7.878299057483673096e-02
-7.865884155035018921e-02
-9.045545756816864014e-02
-8.470504730939865112e-02
-1.154960021376609802e-01
-1.105924397706985474e-01
-1.044691801071166992e-01
-9.469006210565567017e-02
-9.954729676246643066e-02
-1.099809333682060242e-01
-1.096810027956962585e-01
-1.216738149523735046e-01
-1.153913065791130066e-01
-1.322755962610244751e-01
-1.187817379832267761e-01
-1.141510307788848877e-01
-1.208828613162040710e-01
-1.267997026443481445e-01
-1.399756073951721191e-01
-1.389057189226150513e-01
-1.441812068223953247e-01
-1.475340276956558228e-01
-1.380920857191085815e-01
-1.301410198211669922e-01
-1.372458487749099731e-01
-1.493506431579589844e-01
-1.537024676799774170e-01
-1.633393615484237671e-01
-1.715465337038040161e-01
-1.778780370950698853e-01
-1.582179814577102661e-01
-1.703027486801147461e-01
-1.806698888540267944e-01
-1.551873683929443359e-01
-1.761959046125411987e-01
-1.655735224485397339e-01
-1.847130507230758667e-01
-1.885077953338623047e-01
-1.847558915615081787e-01
-1.768562495708465576e-01
-1.786830872297286987e-01
-1.842994540929794312e-01
-1.774590313434600830e-01
-1.599764078855514526e-01
-1.832975745201110840e-01
-1.034626513719558716e-01
-1.508093625307083130e-01
-1.580291092395782471e-01
-1.676378399133682251e-01
-1.689288318157196045e-01
-1.334283947944641113e-01
-9.817655198276042938e-03
-1.766602843999862671e-01
-1.763647347688674927e-01
-1.071217581629753113e-01
-1.230269856750965118e-02
-1.778279095888137817e-01
2.677138149738311768e-02
-1.047596856951713562e-01
7.311884313821792603e-02
1.254808753728866577e-01
1.257139891386032104e-01
5.617196485400199890e-02
-1.431606858968734741e-01
6.171535700559616089e-02
2.949206158518791199e-02
-1.825377047061920166e-01
7.188726216554641724e-02
-1.885617524385452271e-01
-1.860349476337432861e-01
-1.666255295276641846e-01
-1.683941781520843506e-01
-1.911967843770980835e-01
-1.709942072629928589e-01
-1.926110237836837769e-01
-1.403945684432983398e-01
-1.746097356081008911e-01
-1.325522065162658691e-01
-1.739220470190048218e-01
1.100655868649482727e-01
-1.950812041759490967e-01
1.066434755921363831e-01
1.227413490414619446e-01
1.903129667043685913e-01
1.871258318424224854e-01
1.933293640613555908e-01
1.921803206205368042e-01
1.950672268867492676e-01
1.934039741754531860e-01
1.946397870779037476e-01
1.930391192436218262e-01
1.926501244306564331e-01
1.735325306653976440e-01
1.812369227409362793e-01
-1.721069514751434326e-01
-1.788670569658279419e-01
-1.920074522495269775e-01
-1.834643036127090454e-01
-1.920910477638244629e-01
1.519579887390136719e-01
1.854386180639266968e-01
-1.874016970396041870e-01
1.966490447521209717e-01
1.970785260200500488e-01
1.941891163587570190e-01
1.953504681587219238e-01
1.940368562936782837e-01
1.970089226961135864e-01
1.950630694627761841e-01
1.967266201972961426e-01
1.976667344570159912e-01
1.968664526939392090e-01
-1.935591250658035278e-01
1.862797588109970093e-01
-1.877305209636688232e-01
1.935799121856689453e-01
-1.455719470977783203e-01
-1.834950894117355347e-01
-1.548699140548706055e-01
1.430206745862960815e-01
-1.729854047298431396e-01
-7.959798723459243774e-02
4.757087305188179016e-02
1.957935094833374023e-01
1.901786923408508301e-01
1.933815479278564453e-01
1.937425583600997925e-01
1.926634013652801514e-01
1.504817903041839600e-01
1.868373602628707886e-01
1.912770271301269531e-01
1.923010200262069702e-01
1.874135881662368774e-01
1.881991922855377197e-01
1.925618499517440796e-01
1.951855421066284180e-01
1.913879215717315674e-01
1.908982992172241211e-01
1.917195916175842285e-01
1.836751550436019897e-01
1.882541328668594360e-01
1.881137639284133911e-01
1.751540452241897583e-01
1.646738499402999878e-01
1.718151420354843140e-01
1.737474203109741211e-01
1.884278357028961182e-01
1.914381086826324463e-01
1.875885277986526489e-01
1.484981030225753784e-01
1.896219849586486816e-01
1.497027873992919922e-01
1.452912986278533936e-01
1.652650088071823120e-01
1.656405329704284668e-01
1.895239204168319702e-01
1.485419422388076782e-01
1.532170474529266357e-01
1.739183664321899414e-01
1.756019592285156250e-01
1.686735749244689941e-01
1.706698387861251831e-01
1.862262189388275146e-01
1.737319678068161011e-01
1.788637787103652954e-01
1.675029397010803223e-01
1.708807051181793213e-01
1.673220396041870117e-01
1.685474067926406860e-01
1.659106463193893433e-01
1.710074245929718018e-01
1.685985475778579712e-01
1.895056217908859253e-01
1.723451912403106689e-01
1.862783432006835938e-01
1.601701974868774414e-01
1.679016202688217163e-01
1.532261818647384644e-01
1.511984765529632568e-01
1.625647991895675659e-01
1.722413897514343262e-01
1.690142303705215454e-01
1.606096029281616211e-01
1.574123799800872803e-01
1.628115922212600708e-01
1.495294421911239624e-01
1.411249041557312012e-01
1.508929133415222168e-01
1.501024514436721802e-01
1.434715837240219116e-01
1.466321498155593872e-01
1.412888020277023315e-01
1.472708582878112793e-01
1.434586495161056519e-01
1.335252225399017334e-01
1.288379728794097900e-01
1.400675177574157715e-01
1.350357085466384888e-01
1.346801370382308960e-01
1.283353418111801147e-01
1.347134560346603394e-01
1.232656091451644897e-01
1.217973083257675171e-01
1.183087825775146484e-01
1.153572350740432739e-01
1.206598207354545593e-01
1.111501231789588928e-01
1.131075397133827209e-01
1.085596606135368347e-01
1.069860309362411499e-01
1.126426681876182556e-01
1.039181724190711975e-01
1.082216203212738037e-01
9.853211790323257446e-02
8.950082957744598389e-02
9.351138025522232056e-02
9.293363243341445923e-02
8.431045711040496826e-02
8.708511292934417725e-02
8.017836511135101318e-02
7.907836884260177612e-02
7.603938877582550049e-02
6.972282379865646362e-02
7.060235738754272461e-02
7.044390588998794556e-02
7.180341333150863647e-02
6.722111254930496216e-02
6.663889437913894653e-02
6.235200166702270508e-02
5.551871284842491150e-02
5.158588290214538574e-02
5.873049050569534302e-02
5.420056730508804321e-02
5.030259117484092712e-02
5.420815199613571167e-02
4.865165054798126221e-02
4.435880482196807861e-02
3.881254047155380249e-02
4.068173840641975403e-02
4.445356875658035278e-02
3.904880210757255554e-02
3.297151625156402588e-02
2.616392076015472412e-02
2.820760570466518402e-02
3.329891711473464966e-02
1.928674429655075073e-02
1.303493231534957886e-02
2.800049632787704468e-02
2.808170765638351440e-02
2.380372397601604462e-02
1.315170712769031525e-02
2.051894739270210266e-02
1.542565785348415375e-02
-4.198416136205196381e-03
-9.569424204528331757e-03
-1.804959494620561600e-03
-1.654847711324691772e-02
-1.641046628355979919e-02
-6.364469416439533234e-03
-1.482048816978931427e-02
-1.809467189013957977e-02
-2.610901743173599243e-02
7.967548444867134094e-03
-2.359574660658836365e-02
4.146600887179374695e-02
-2.939098700881004333e-02
-1.464465726166963577e-02
-3.373160213232040405e-02
-2.605888061225414276e-03
-2.591801062226295471e-02
-5.454122275114059448e-02
-2.521144226193428040e-02
-5.655053630471229553e-02
-1.236616447567939758e-02
-5.470136646181344986e-03
-7.266738917678594589e-03
2.724574506282806396e-02
-6.991691887378692627e-02
5.687627475708723068e-03
-1.222951635718345642e-01
3.741613402962684631e-02
-1.425454169511795044e-01
-2.163157612085342407e-02
-1.313289552927017212e-01
-6.079031154513359070e-02
-1.355355083942413330e-01
-1.292247176170349121e-01
-1.342519670724868774e-01
-1.390565186738967896e-01
-1.413990259170532227e-01
7.665504515171051025e-02
6.903162598609924316e-02
8.681280165910720825e-02
1.032510697841644287e-01
7.877583801746368408e-02
7.527925819158554077e-02
6.975337117910385132e-02
3.372392803430557251e-02
5.514365062117576599e-02
1.292373426258563995e-02
5.545602180063724518e-03
-1.047709286212921143e-01
-7.157234847545623779e-02
-6.920953840017318726e-02
-3.765576705336570740e-02
-4.517154023051261902e-02
-6.690262258052825928e-02
-8.441092073917388916e-02
-1.014329046010971069e-01
-9.052629768848419189e-02
-6.673451513051986694e-02
-5.503708869218826294e-02
-3.500054031610488892e-02
-4.588089138269424438e-02
-7.379254698753356934e-02
-1.024970412254333496e-01
-9.525032341480255127e-02
-8.022096008062362671e-02
-5.979831516742706299e-02
-6.016049161553382874e-02
-7.251559942960739136e-02
-8.627176284790039062e-02
-8.597068488597869873e-02
-7.610270380973815918e-02
-8.495438843965530396e-02
-9.364773333072662354e-02
-8.072894066572189331e-02
-7.328791171312332153e-02
-7.953712344169616699e-02
-9.066376835107803345e-02
-9.293383359909057617e-02
-9.815831482410430908e-02
-9.688722342252731323e-02
-1.069845184683799744e-01
-1.037749573588371277e-01
-1.039135307073593140e-01
-1.149313300848007202e-01
-1.208032369613647461e-01
-1.253692209720611572e-01
-1.237922310829162598e-01
-1.213330850005149841e-01
-1.368895769119262695e-01
-1.208986341953277588e-01
-1.180721968412399292e-01
-1.171080842614173889e-01
-1.163705885410308838e-01
-1.311443001031875610e-01
-1.326803267002105713e-01
-1.391503214836120605e-01
-1.480972766876220703e-01
-1.403235495090484619e-01
-1.429520398378372192e-01
-1.418410390615463257e-01
-1.459767222404479980e-01
-1.473507285118103027e-01
-1.485065370798110962e-01
-1.504604965448379517e-01
-1.598137170076370239e-01
-1.524135321378707886e-01
-1.727429628372192383e-01
-1.535707116127014160e-01
-1.646625846624374390e-01
-1.504075974225997925e-01
-1.833563446998596191e-01
-1.731098741292953491e-01
-1.662261039018630981e-01
-1.538152843713760376e-01
-1.559391170740127563e-01
-1.351042836904525757e-01
-1.750594675540924072e-01
-1.456857323646545410e-01
-1.745223999023437500e-01
-2.505019865930080414e-02
-1.829200536012649536e-01
-1.948557496070861816e-01
-1.770913600921630859e-01
-1.954536288976669312e-01
-1.938701421022415161e-01
-1.943745315074920654e-01
-1.964449733495712280e-01
-1.946800798177719116e-01
-1.955127418041229248e-01
-1.970957368612289429e-01
-1.957226991653442383e-01
-1.956650167703628540e-01
-1.962861567735671997e-01
-1.957066655158996582e-01
2.146140299737453461e-02
-1.944809854030609131e-01
-1.752133667469024658e-01
1.290731728076934814e-01
-1.548452973365783691e-01
-1.271219104528427124e-01
1.933245062828063965e-01
1.936893612146377563e-01
1.955955177545547485e-01
1.959939450025558472e-01
1.945517212152481079e-01
1.952367126941680908e-01
1.932472884654998779e-01
1.960297971963882446e-01
1.972001641988754272e-01
1.968916803598403931e-01
1.460175365209579468e-01
1.961272358894348145e-01
1.953697949647903442e-01
-1.929345577955245972e-01
-1.957158744335174561e-01
-1.947350203990936279e-01
-1.976817101240158081e-01
-1.963344067335128784e-01
-1.941618621349334717e-01
-1.937272399663925171e-01
-1.963118761777877808e-01
-1.969880163669586182e-01
-1.957808434963226318e-01
-1.965784430503845215e-01
-1.959816366434097290e-01
-1.937940120697021484e-01
1.939355880022048950e-01
-1.938634663820266724e-01
1.836393475532531738e-01
1.970464438199996948e-01
1.949079930782318115e-01
1.959901899099349976e-01
1.943715810775756836e-01
1.964256912469863892e-01
1.960546076297760010e-01
1.965029835700988770e-01
1.961219608783721924e-01
1.961330026388168335e-01
1.955625414848327637e-01
-1.832804232835769653e-01
1.874180585145950317e-01
1.888063549995422363e-01
1.910804510116577148e-01
-1.909011304378509521e-01
-1.939146816730499268e-01
1.547752916812896729e-01
1.820095330476760864e-01
1.627979874610900879e-01
1.945150792598724365e-01
-1.689932346343994141e-01
1.922204345464706421e-01
1.248479038476943970e-01
1.016656756401062012e-01
1.827562004327774048e-01
1.945239007472991943e-01
-9.141280502080917358e-02
1.506905257701873779e-01
1.739604324102401733e-01
1.878080964088439941e-01
9.719604998826980591e-02
1.117027923464775085e-01
1.859948039054870605e-01
1.755805313587188721e-01
1.536631137132644653e-01
1.760898977518081665e-01
1.657070070505142212e-01
1.835006177425384521e-01
1.853297799825668335e-01
1.934286952018737793e-01
1.835624277591705322e-01
1.312266290187835693e-01
1.455766111612319946e-01
1.619502604007720947e-01
-3.145567327737808228e-02
1.383551806211471558e-01
1.545228958129882812e-01
1.825849115848541260e-01
1.140456274151802063e-01
1.811296939849853516e-01
1.695054769515991211e-01
1.625122725963592529e-01
1.540670841932296753e-01
1.821827590465545654e-01
1.665290296077728271e-01
1.466299295425415039e-01
1.928341388702392578e-01
1.962674409151077271e-01
1.946534961462020874e-01
1.957228630781173706e-01
1.932545751333236694e-01
1.966326385736465454e-01
1.963203996419906616e-01
1.924455761909484863e-01
1.981600522994995117e-01
1.979579925537109375e-01
1.963855773210525513e-01
1.973468512296676636e-01
1.954818218946456909e-01
1.976895779371261597e-01
1.857735663652420044e-01
8.035872876644134521e-02
1.978645473718643188e-01
1.966356784105300903e-01
1.934464126825332642e-01
1.908123791217803955e-01
1.957754343748092651e-01
-1.020370982587337494e-03
1.932396143674850464e-01
1.474263668060302734e-01
3.324876725673675537e-02
-5.332953482866287231e-02
1.190258488059043884e-01
-1.187922507524490356e-01
-7.346110045909881592e-02
-7.801514118909835815e-02
-4.560059681534767151e-02
-6.232644617557525635e-02
6.232493091374635696e-03
1.899204999208450317e-01
1.942699551582336426e-01
1.923501938581466675e-01
1.891783028841018677e-01
1.627676188945770264e-01
1.755910366773605347e-01
1.545637249946594238e-01
1.546355634927749634e-01
1.538469791412353516e-01
1.660151481628417969e-01
1.761831492185592651e-01
1.637179851531982422e-01
1.620319485664367676e-01
1.432492434978485107e-01
8.187232166528701782e-02
8.038931339979171753e-02
1.621032953262329102e-01
1.507595628499984741e-01
1.648553013801574707e-01
1.347871720790863037e-01
1.335227191448211670e-01
1.368926763534545898e-01
1.321666687726974487e-01
1.173873022198677063e-01
1.049980223178863525e-01
1.209013015031814575e-01
1.081965863704681396e-01
8.995876461267471313e-02
8.106756955385208130e-02
9.105160087347030640e-02
8.308257162570953369e-02
7.679292559623718262e-02
6.894333660602569580e-02
7.321797311305999756e-02
6.658572703599929810e-02
4.055242612957954407e-02
3.320497646927833557e-02
3.953281790018081665e-02
3.649384900927543640e-02
3.220336511731147766e-02
3.373931720852851868e-02
4.230955988168716431e-02
2.731227502226829529e-02
1.534425374120473862e-02
6.288324017077684402e-03
-1.836305134929716587e-03
1.008854713290929794e-02
4.798903595656156540e-03
9.319898672401905060e-03
9.776554070413112640e-04
-1.531510613858699799e-02
-3.999447077512741089e-02
-4.457708448171615601e-02
-4.164454340934753418e-02
-3.336296603083610535e-02
-3.249274194240570068e-02
-2.717217244207859039e-02
