-2.675994932651519775e-01
-2.723966240882873535e-01
-2.646526694297790527e-01
-2.716552913188934326e-01
-1.784248054027557373e-01
-2.472414821386337280e-01
-1.655998677015304565e-01
-2.414878010749816895e-01
-1.695934534072875977e-01
-2.708965837955474854e-01
-2.326801866292953491e-01
9.281617403030395508e-02
2.657986283302307129e-01
2.743649482727050781e-01
2.580569982528686523e-01
2.678365707397460938e-01
2.710377871990203857e-01
2.703154087066650391e-01
2.714349627494812012e-01
2.713898122310638428e-01
2.698143124580383301e-01
2.677372694015502930e-01
2.682096362113952637e-01
2.670815289020538330e-01
2.700342833995819092e-01
2.711327970027923584e-01
2.696014642715454102e-01
2.690289020538330078e-01
2.694520950317382812e-01
2.683350741863250732e-01
2.685561180114746094e-01
2.688971459865570068e-01
2.681382298469543457e-01
2.669929862022399902e-01
2.616872191429138184e-01
2.588546276092529297e-01
2.669798731803894043e-01
2.660003304481506348e-01
2.611714005470275879e-01
2.611688673496246338e-01
2.578775882720947266e-01
2.557811439037322998e-01
2.486684173345565796e-01
2.364077866077423096e-01
2.445823848247528076e-01
2.450467050075531006e-01
2.365607172250747681e-01
2.308509349822998047e-01
2.376327067613601685e-01
2.359604984521865845e-01
2.329893112182617188e-01
2.303294688463211060e-01
2.282301038503646851e-01
2.239570468664169312e-01
2.211171537637710571e-01
2.087130844593048096e-01
2.214112430810928345e-01
2.063184827566146851e-01
2.247350215911865234e-01
1.839757263660430908e-01
2.196406871080398560e-01
2.159081399440765381e-01
2.310523390769958496e-01
2.316087633371353149e-01
2.512798607349395752e-01
2.608758509159088135e-01
2.555669546127319336e-01
2.470616400241851807e-01
2.418187856674194336e-01
2.559929192066192627e-01
2.513152658939361572e-01
2.563777267932891846e-01
2.556856274604797363e-01
2.562267482280731201e-01
2.687712013721466064e-01
2.592025995254516602e-01
2.725774049758911133e-01
2.544200718402862549e-01
2.690509557723999023e-01
2.633392810821533203e-01
2.587723731994628906e-01
2.438968420028686523e-01
2.395638823509216309e-01
2.332782447338104248e-01
2.341375201940536499e-01
2.101535350084304810e-01
1.910013407468795776e-01
1.845765113830566406e-01
1.705210506916046143e-01
1.497079879045486450e-01
1.124795302748680115e-01
1.337075531482696533e-01
1.344742178916931152e-01
5.295505374670028687e-02
-2.790113911032676697e-03
-3.266929090023040771e-02
-5.332694575190544128e-02
-9.683830291032791138e-02
-9.584271162748336792e-02
-1.022922620177268982e-01
-8.880932629108428955e-02
-1.062540560960769653e-01
-1.408396810293197632e-01
-1.430543512105941772e-01
-1.664676368236541748e-01
-1.948980540037155151e-01
-1.900536715984344482e-01
-1.784879863262176514e-01
-1.811520457267761230e-01
-1.981050521135330200e-01
-2.154955118894577026e-01
-2.129275351762771606e-01
-2.286767661571502686e-01
-2.384097874164581299e-01
-2.217792719602584839e-01
-2.132796496152877808e-01
-2.107642143964767456e-01
-2.215776443481445312e-01
-2.334709316492080688e-01
-2.331823408603668213e-01
-2.414825260639190674e-01
-2.520442306995391846e-01
-2.466882318258285522e-01
-2.394478619098663330e-01
-2.376795113086700439e-01
-2.404334843158721924e-01
-2.502125501632690430e-01
-2.516306340694427490e-01
-2.575811743736267090e-01
-2.533484399318695068e-01
-2.597096562385559082e-01
-2.517322599887847900e-01
-2.520980238914489746e-01
-2.576529383659362793e-01
-2.541873455047607422e-01
-2.559251785278320312e-01
-2.601047456264495850e-01
-2.546370327472686768e-01
-2.584061324596405029e-01
-2.630109488964080811e-01
-2.593336999416351318e-01
-2.603062987327575684e-01
-2.604928612709045410e-01
-2.644580304622650146e-01
-2.671358585357666016e-01
-2.664195597171783447e-01
-2.688671946525573730e-01
-2.704916596412658691e-01
-2.579503357410430908e-01
-2.700769901275634766e-01
-2.690466940402984619e-01
-2.708795666694641113e-01
-2.688819169998168945e-01
-2.662115693092346191e-01
-2.694982290267944336e-01
-2.715707421302795410e-01
-2.554532587528228760e-01
-2.617433965206146240e-01
-2.532445490360260010e-01
-2.486842274665832520e-01
-2.552359104156494141e-01
-2.615236937999725342e-01
-2.529890239238739014e-01
-2.442948371171951294e-01
-2.643649578094482422e-01
-2.690099179744720459e-01
-2.705629765987396240e-01
-2.663330137729644775e-01
-2.684213519096374512e-01
-2.650745511054992676e-01
-2.664987444877624512e-01
-2.658112347126007080e-01
-2.657915353775024414e-01
-2.651152014732360840e-01
-2.661851346492767334e-01
-1.291541159152984619e-01
-2.691957950592041016e-01
-1.734826266765594482e-01
-2.543251216411590576e-02
2.164220511913299561e-01
2.122241258621215820e-01
2.505745291709899902e-01
2.296135872602462769e-01
2.510955333709716797e-01
2.456613332033157349e-01
2.506860196590423584e-01
-6.134375464171171188e-03
-2.257664948701858521e-01
-2.531009316444396973e-01
-3.263747692108154297e-02
-2.581814527511596680e-01
-2.579012811183929443e-01
-2.576526105403900146e-01
-2.548066675662994385e-01
-2.604893147945404053e-01
2.321116924285888672e-01
-2.589802742004394531e-01
-2.548686265945434570e-01
-2.574903368949890137e-01
1.201733015477657318e-02
-2.584596574306488037e-01
-2.969842031598091125e-02
-2.655316293239593506e-01
-2.598232626914978027e-01
-2.626034617424011230e-01
-2.616704404354095459e-01
-2.521837055683135986e-01
1.689477264881134033e-01
-2.528439760208129883e-01
2.321983575820922852e-01
2.494456022977828979e-01
2.587291598320007324e-01
2.406355738639831543e-01
2.583296298980712891e-01
2.264342308044433594e-01
2.580828070640563965e-01
2.550166547298431396e-01
2.573442757129669189e-01
2.497550845146179199e-01
2.568059265613555908e-01
-2.576792538166046143e-01
-2.547571063041687012e-01
-2.355737239122390747e-01
2.389178723096847534e-01
-2.394552379846572876e-01
-2.429098337888717651e-01
-2.457099556922912598e-01
-2.121875882148742676e-01
-2.388300448656082153e-01
-2.023265063762664795e-01
-2.373403906822204590e-01
-2.292174845933914185e-01
-1.942569576203823090e-02
2.474977523088455200e-01
1.972970180213451385e-02
7.664753496646881104e-02
3.431512787938117981e-02
1.901579052209854126e-01
2.114333659410476685e-01
2.428734600543975830e-01
5.805556848645210266e-02
1.950239241123199463e-01
2.381474226713180542e-01
2.366830110549926758e-01
2.230447232723236084e-01
2.413052618503570557e-01
-1.998495459556579590e-01
2.383104860782623291e-01
2.350673228502273560e-01
-1.537052243947982788e-01
-2.073723375797271729e-01
-1.932563483715057373e-01
-2.028350979089736938e-01
-1.993639469146728516e-01
-1.707957684993743896e-01
2.467055469751358032e-01
-1.794752627611160278e-01
2.051591128110885620e-01
2.431477308273315430e-01
2.393520921468734741e-01
2.362112849950790405e-01
2.306647449731826782e-01
2.325124144554138184e-01
2.365505695343017578e-01
2.408920228481292725e-01
2.461517155170440674e-01
2.456030547618865967e-01
2.419771403074264526e-01
-1.276369541883468628e-01
-1.309086978435516357e-01
2.662175893783569336e-01
2.678786218166351318e-01
-1.194631308317184448e-01
-7.670561969280242920e-02
2.593907415866851807e-01
2.500780522823333740e-01
2.578783035278320312e-01
2.463669776916503906e-01
2.645965814590454102e-01
2.581716775894165039e-01
2.489273250102996826e-01
2.445439547300338745e-01
1.477080136537551880e-01
-1.797762513160705566e-02
6.879152730107307434e-03
1.848494634032249451e-02
1.234417483210563660e-01
2.685796022415161133e-01
1.233861222863197327e-01
1.340508311986923218e-01
2.683587968349456787e-01
2.717392146587371826e-01
2.663379609584808350e-01
2.709449827671051025e-01
2.717024683952331543e-01
2.709143459796905518e-01
2.673101425170898438e-01
2.696317136287689209e-01
2.741554975509643555e-01
2.704688608646392822e-01
2.659464180469512939e-01
2.704202532768249512e-01
2.744425535202026367e-01
2.753709554672241211e-01
2.727755308151245117e-01
2.706791758537292480e-01
2.664609551429748535e-01
2.736862897872924805e-01
2.675389945507049561e-01
2.213010489940643311e-01
2.642939388751983643e-01
2.681929171085357666e-01
2.724938094615936279e-01
2.134976089000701904e-01
2.725510001182556152e-01
2.716965675354003906e-01
2.629885375499725342e-01
2.686871588230133057e-01
2.716672122478485107e-01
2.701763510704040527e-01
2.686465084552764893e-01
2.677268385887145996e-01
2.716462314128875732e-01
2.707501649856567383e-01
2.684820294380187988e-01
2.442156523466110229e-01
2.675125598907470703e-01
2.689469456672668457e-01
2.664754390716552734e-01
2.683725655078887939e-01
2.680193781852722168e-01
2.624847888946533203e-01
2.672688364982604980e-01
2.409904450178146362e-01
2.665855586528778076e-01
2.634743750095367432e-01
2.548357248306274414e-01
2.701922059059143066e-01
2.642039954662322998e-01
2.663268148899078369e-01
2.616472840309143066e-01
2.606391310691833496e-01
2.659546732902526855e-01
2.620852589607238770e-01
2.542479336261749268e-01
2.615884840488433838e-01
2.599448561668395996e-01
2.610911428928375244e-01
2.533840537071228027e-01
2.484616935253143311e-01
2.525460124015808105e-01
2.449295371770858765e-01
2.620686888694763184e-01
2.482453584671020508e-01
2.510654032230377197e-01
2.445319145917892456e-01
2.455229759216308594e-01
2.395193129777908325e-01
2.388561517000198364e-01
2.387742698192596436e-01
2.389688044786453247e-01
2.307485938072204590e-01
2.291717082262039185e-01
2.259657382965087891e-01
2.359376549720764160e-01
2.326011210680007935e-01
2.135272473096847534e-01
2.169043421745300293e-01
2.096649408340454102e-01
2.010557502508163452e-01
1.963349431753158569e-01
1.838837862014770508e-01
1.963125318288803101e-01
1.778389364480972290e-01
1.658950150012969971e-01
1.546368151903152466e-01
1.496748626232147217e-01
1.504660546779632568e-01
1.224553734064102173e-01
1.260868608951568604e-01
1.248395815491676331e-01
1.066161692142486572e-01
7.900688052177429199e-02
7.946396619081497192e-02
7.041580229997634888e-02
6.408554315567016602e-02
4.238865897059440613e-02
4.789233207702636719e-02
4.434012994170188904e-02
2.749952673912048340e-02
5.464025307446718216e-04
-3.084564115852117538e-03
-8.948815986514091492e-03
-1.322343386709690094e-02
-2.156594209372997284e-02
-1.246002316474914551e-02
-2.217682264745235443e-02
-5.349655449390411377e-02
-6.627530604600906372e-02
-7.951529324054718018e-02
-7.772286981344223022e-02
-9.377043694257736206e-02
-6.628438085317611694e-02
-8.589623868465423584e-02
-8.487092703580856323e-02
-1.015665456652641296e-01
-1.128530055284500122e-01
-1.116993352770805359e-01
-1.207183524966239929e-01
-1.415857821702957153e-01
-1.318504661321640015e-01
-1.253363341093063354e-01
-1.477838158607482910e-01
-1.655737012624740601e-01
-1.694183647632598877e-01
-1.623795032501220703e-01
-1.727634668350219727e-01
-1.822346597909927368e-01
-1.749476641416549683e-01
-1.820785999298095703e-01
-1.768141984939575195e-01
-1.932687163352966309e-01
-1.996121704578399658e-01
-2.055974453687667847e-01
-2.116870880126953125e-01
-2.221063822507858276e-01
-2.230268567800521851e-01
-2.108213603496551514e-01
-2.191540598869323730e-01
-2.107689678668975830e-01
-2.347557395696640015e-01
-2.283452749252319336e-01
-2.386767864227294922e-01
-2.366419285535812378e-01
-2.165932655334472656e-01
-2.212675064802169800e-01
-1.973999738693237305e-01
-2.169737070798873901e-01
-2.087303996086120605e-01
-2.236064076423645020e-01
-2.131193876266479492e-01
-2.236980944871902466e-01
-2.215153425931930542e-01
-2.391320317983627319e-01
-2.320410311222076416e-01
-2.393674701452255249e-01
-2.492923140525817871e-01
-2.336837351322174072e-01
-2.411248981952667236e-01
-2.414204180240631104e-01
-2.322462052106857300e-01
-2.330862134695053101e-01
-2.372863143682479858e-01
-2.500368356704711914e-01
-2.473754137754440308e-01
-2.541317045688629150e-01
-2.590423226356506348e-01
-2.556574940681457520e-01
-2.607147395610809326e-01
-2.565559744834899902e-01
-2.604604959487915039e-01
-2.482673525810241699e-01
-2.683739662170410156e-01
-2.678363621234893799e-01
-2.647376060485839844e-01
-2.645321786403656006e-01
-2.625727355480194092e-01
-2.586137354373931885e-01
-2.594527602195739746e-01
-2.642462551593780518e-01
-2.594868838787078857e-01
-2.596905231475830078e-01
-2.564941048622131348e-01
-2.430769801139831543e-01
-2.558319568634033203e-01
-2.534429132938385010e-01
-2.504079043865203857e-01
-2.607581019401550293e-01
-2.291764765977859497e-01
1.912163794040679932e-01
-2.583705186843872070e-01
1.927039027214050293e-01
2.249808907508850098e-01
2.421527802944183350e-01
2.430830150842666626e-01
2.459066957235336304e-01
2.337107658386230469e-01
2.544144392013549805e-01
2.470950186252593994e-01
-2.241110950708389282e-01
-2.386925518512725830e-01
-2.371235936880111694e-01
-2.474419474601745605e-01
-2.469226121902465820e-01
-2.499424517154693604e-01
-2.358631789684295654e-01
-2.275748997926712036e-01
-2.486855983734130859e-01
-2.674857713282108307e-02
-2.187698185443878174e-01
-8.094964176416397095e-02
-2.295343726873397827e-01
2.375212162733078003e-01
2.507097125053405762e-01
2.471640259027481079e-01
2.493999004364013672e-01
2.452271133661270142e-01
2.465322762727737427e-01
2.434286475181579590e-01
2.430674135684967041e-01
2.418189793825149536e-01
2.470468431711196899e-01
2.403110116720199585e-01
2.472771853208541870e-01
-2.467382997274398804e-01
-2.433525323867797852e-01
-2.436834573745727539e-01
-2.448769360780715942e-01
-2.202747166156768799e-01
-2.012094855308532715e-01
-2.178532183170318604e-01
-2.064147591590881348e-01
-2.079932689666748047e-01
-1.792835444211959839e-01
-9.984696656465530396e-02
-2.012252509593963623e-01
-1.779903024435043335e-01
2.397339940071105957e-01
-1.420446634292602539e-01
2.186161130666732788e-01
2.247709631919860840e-01
2.353989705443382263e-02
2.132131308317184448e-01
2.090532630681991577e-01
2.011652886867523193e-01
2.133398205041885376e-01
1.953264474868774414e-01
1.987040489912033081e-01
1.812787353992462158e-01
1.784640699625015259e-01
1.897649317979812622e-01
1.766065508127212524e-01
1.819556206464767456e-01
1.540876030921936035e-01
1.919651627540588379e-01
1.384911835193634033e-01
-1.302420943975448608e-01
-1.127230077981948853e-01
-9.836882352828979492e-02
-1.246665045619010925e-01
-1.459210664033889771e-01
-1.210951283574104309e-01
-1.211365982890129089e-01
-1.825838387012481689e-01
-1.100007891654968262e-01
-1.648845225572586060e-01
-9.808608144521713257e-02
-1.496426910161972046e-01
-2.091062515974044800e-01
7.879691570997238159e-02
-1.954341679811477661e-01
-1.456026881933212280e-01
1.004354432225227356e-01
1.622280329465866089e-01
-1.582308113574981689e-01
1.890583336353302002e-01
2.140044271945953369e-01
2.394408881664276123e-01
2.585165500640869141e-01
2.525233924388885498e-01
2.455291599035263062e-01
2.581038475036621094e-01
2.619310319423675537e-01
2.636952698230743408e-01
2.659154832363128662e-01
2.638002336025238037e-01
2.633201181888580322e-01
2.691620290279388428e-01
2.723545730113983154e-01
-5.990125983953475952e-02
2.621580362319946289e-01
2.672305405139923096e-01
-1.958354413509368896e-01
-2.396611720323562622e-01
-2.232418209314346313e-01
-2.465028166770935059e-01
-2.418719679117202759e-01
-2.424793839454650879e-01
-1.776823252439498901e-01
-1.870577931404113770e-01
2.409633100032806396e-01
2.692266702651977539e-01
2.210953533649444580e-01
2.565530240535736084e-01
2.708466053009033203e-01
2.617647349834442139e-01
2.522007524967193604e-01
2.661606073379516602e-01
2.520501613616943359e-01
2.668513655662536621e-01
2.656094431877136230e-01
2.688154280185699463e-01
1.469297409057617188e-01
1.144866496324539185e-01
1.132441908121109009e-01
1.369970440864562988e-01
1.843120157718658447e-01
2.483071982860565186e-01
1.871250718832015991e-01
2.497912645339965820e-01
2.511807680130004883e-01
2.096337527036666870e-01
1.931787282228469849e-01
2.060943692922592163e-01
2.226872444152832031e-01
2.372307479381561279e-01
1.792992949485778809e-01
2.263628095388412476e-01
2.552261054515838623e-01
1.898682415485382080e-01
1.677016168832778931e-01
1.628733128309249878e-01
2.386874705553054810e-01
2.218814641237258911e-01
1.805244982242584229e-01
1.900343000888824463e-01
2.427495270967483521e-01
2.454293370246887207e-01
2.342234700918197632e-01
2.577556967735290527e-01
2.511870861053466797e-01
2.401508539915084839e-01
2.137111723423004150e-01
2.331985831260681152e-01
2.628861367702484131e-01
2.561859190464019775e-01
2.147433161735534668e-01
2.412998378276824951e-01
2.586529552936553955e-01
2.670370042324066162e-01
2.681414783000946045e-01
2.655471861362457275e-01
2.677263617515563965e-01
2.650632262229919434e-01
2.173406183719635010e-01
2.317193001508712769e-01
2.676821351051330566e-01
2.679383456707000732e-01
2.588799595832824707e-01
2.311622649431228638e-01
2.678904235363006592e-01
2.631514072418212891e-01
2.602486014366149902e-01
2.671388089656829834e-01
2.690281271934509277e-01
2.551027834415435791e-01
2.068592756986618042e-01
2.561778128147125244e-01
2.567918300628662109e-01
2.728465795516967773e-01
2.663390636444091797e-01
2.675763964653015137e-01
2.654954493045806885e-01
2.443227916955947876e-01
2.352589666843414307e-01
2.422481030225753784e-01
2.633668184280395508e-01
2.515025436878204346e-01
2.703758776187896729e-01
2.531954348087310791e-01
2.432363033294677734e-01
2.249666154384613037e-01
2.162409573793411255e-01
2.416706085205078125e-01
2.302180826663970947e-01
2.258316576480865479e-01
2.405577898025512695e-01
2.138360142707824707e-01
2.081524431705474854e-01
1.739985197782516479e-01
1.785900741815567017e-01
2.018760144710540771e-01
1.900719553232192993e-01
1.855546385049819946e-01
1.758584827184677124e-01
1.703408062458038330e-01
1.565290242433547974e-01
1.532378345727920532e-01
1.533763259649276733e-01
1.583468466997146606e-01
1.390672177076339722e-01
1.227194741368293762e-01
1.158490628004074097e-01
8.098769187927246094e-02
9.791009128093719482e-02
8.660023659467697144e-02
1.033187657594680786e-01
8.682850003242492676e-02
6.115626171231269836e-02
7.974344491958618164e-02
3.944751620292663574e-02
-6.950919050723314285e-04
-4.209714755415916443e-02
-7.984183728694915771e-03
-7.637809496372938156e-03
8.660616353154182434e-03
7.624474354088306427e-03
-5.542789585888385773e-03
-1.362136285752058029e-02
-5.268770083785057068e-02
-6.894758343696594238e-02
-7.865032553672790527e-02
-5.246327817440032959e-02
-8.419872075319290161e-02
-4.653488472104072571e-02
-7.716657221317291260e-02
-7.746749371290206909e-02
-8.927673101425170898e-02
-9.767345339059829712e-02
-1.031095236539840698e-01
-1.090857461094856262e-01
-1.319205015897750854e-01
-1.183226779103279114e-01
-1.082293093204498291e-01
-1.243194267153739929e-01
-1.323669403791427612e-01
-1.316112428903579712e-01
-1.305475085973739624e-01
-1.398139297962188721e-01
-1.671811342239379883e-01
-1.599534153938293457e-01
-1.479147225618362427e-01
-1.610863804817199707e-01
-1.687208116054534912e-01
-1.682211011648178101e-01
-1.681738346815109253e-01
-1.763843744993209839e-01
-2.049495279788970947e-01
-1.953587383031845093e-01
-1.763726174831390381e-01
-1.816965490579605103e-01
-1.977507323026657104e-01
-1.954974979162216187e-01
-2.080542296171188354e-01
-2.091584056615829468e-01
-2.428150027990341187e-01
-2.250062674283981323e-01
-2.282321006059646606e-01
-2.197668254375457764e-01
-2.205554097890853882e-01
-2.423572540283203125e-01
-2.367897331714630127e-01
-2.408258914947509766e-01
-2.338094562292098999e-01
-2.375651150941848755e-01
-2.375113815069198608e-01
-2.283267676830291748e-01
-2.358374297618865967e-01
-2.212088108062744141e-01
-2.362011522054672241e-01
-2.087295204401016235e-01
-1.988120824098587036e-01
-1.829725950956344604e-01
-1.977396458387374878e-01
-1.697934865951538086e-01
-1.918465495109558105e-01
-2.284064441919326782e-01
-2.237509489059448242e-01
-2.239857316017150879e-01
-1.828371882438659668e-01
-1.395979523658752441e-01
-7.774937897920608521e-02
-1.159815043210983276e-01
-7.954704016447067261e-02
-5.834408104419708252e-02
-9.338441491127014160e-02
-5.495654046535491943e-02
-1.288404166698455811e-01
-2.138897180557250977e-01
-1.874944716691970825e-01
-2.032881230115890503e-01
-2.381657212972640991e-01
-2.372995615005493164e-01
-2.288074344396591187e-01
-2.325499206781387329e-01
-2.372758835554122925e-01
-2.294329106807708740e-01
-2.254898697137832642e-01
-2.406849265098571777e-01
-2.329306155443191528e-01
-2.357754409313201904e-01
1.573746949434280396e-01
1.709905415773391724e-01
2.204016745090484619e-01
2.253716289997100830e-01
2.342295795679092407e-01
2.369696944952011108e-01
2.437314242124557495e-01
2.453822940587997437e-01
2.509538829326629639e-01
2.473586499691009521e-01
2.473904639482498169e-01
2.485244721174240112e-01
2.473651617765426636e-01
-2.422608733177185059e-01
2.534901797771453857e-01
-1.930614113807678223e-01
-2.254594415426254272e-01
-2.444680482149124146e-01
-2.232543826103210449e-01
-2.401845008134841919e-01
-2.383786588907241821e-01
-2.439899891614913940e-01
-2.324673235416412354e-01
-2.358109951019287109e-01
-1.815256029367446899e-01
2.435534298419952393e-01
2.392002344131469727e-01
2.587649822235107422e-01
2.553736269474029541e-01
2.452037483453750610e-01
2.473619282245635986e-01
2.380696982145309448e-01
2.249890118837356567e-01
2.222549468278884888e-01
2.251289486885070801e-01
1.753966957330703735e-01
2.017647624015808105e-01
1.770305782556533813e-01
1.825321763753890991e-01
1.122703999280929565e-01
1.167086437344551086e-01
2.323150187730789185e-01
1.509255170822143555e-01
-1.104437336325645447e-01
-1.303284466266632080e-01
2.398827672004699707e-01
1.673475801944732666e-01
-4.694723710417747498e-02
-3.070211410522460938e-02
2.122097015380859375e-01
-6.334330886602401733e-03
-4.397873952984809875e-02
-1.764271967113018036e-02
-2.402824908494949341e-02
-2.184253185987472534e-02
4.366432502865791321e-02
1.638257354497909546e-01
1.788260415196418762e-02
1.693642288446426392e-01
1.170237287878990173e-01
1.318175345659255981e-01
1.555866301059722900e-01
1.170860826969146729e-01
1.370167434215545654e-01
1.509863287210464478e-01
1.631038188934326172e-01
1.659674346446990967e-01
2.081690430641174316e-01
1.753490716218948364e-01
1.872711777687072754e-01
2.003119736909866333e-01
2.240067124366760254e-01
2.049091756343841553e-01
2.330533564090728760e-01
2.408927977085113525e-01
7.972706854343414307e-02
1.570849716663360596e-01
2.160244584083557129e-01
1.511544585227966309e-01
3.187018632888793945e-02
5.235762149095535278e-02
1.775656342506408691e-01
2.336562722921371460e-01
5.935756862163543701e-02
1.569344103336334229e-01
2.069251090288162231e-01
1.928142756223678589e-01
5.922434106469154358e-02
2.425764948129653931e-01
2.358617782592773438e-01
2.305701375007629395e-01
2.406482100486755371e-01
2.575893700122833252e-01
2.447119802236557007e-01
2.472642213106155396e-01
2.496502250432968140e-01
2.540169656276702881e-01
2.637905478477478027e-01
2.529704272747039795e-01
2.485794425010681152e-01
2.491700202226638794e-01
2.436783462762832642e-01
2.445354163646697998e-01
2.089971601963043213e-01
2.484011352062225342e-01
2.561546862125396729e-01
-7.774549722671508789e-02
-9.017225354909896851e-02
-1.023174747824668884e-01
-1.502583026885986328e-01
-2.163979262113571167e-01
-2.361990511417388916e-01
-2.493372410535812378e-01
-1.870058923959732056e-01
-2.541741132736206055e-01
-2.459865063428878784e-01
-2.341553270816802979e-01
-2.054763734340667725e-01
-2.543051242828369141e-01
2.539336681365966797e-01
2.631325125694274902e-01
2.342418730258941650e-01
2.519398629665374756e-01
2.621214389801025391e-01
2.670746147632598877e-01
2.697843015193939209e-01
2.699607908725738525e-01
2.676351070404052734e-01
2.687104940414428711e-01
2.685647010803222656e-01
2.704117000102996826e-01
2.706176936626434326e-01
2.714345753192901611e-01
-1.666530817747116089e-01
4.370112717151641846e-02
-2.180354446172714233e-01
2.657903432846069336e-01
2.509971857070922852e-01
2.340759038925170898e-01
2.702715694904327393e-01
2.687928080558776855e-01
2.451789975166320801e-01
2.684292793273925781e-01
2.384010702371597290e-01
2.443202584981918335e-01
2.601704001426696777e-01
2.325484454631805420e-01
2.463804036378860474e-01
2.474230676889419556e-01
2.378700971603393555e-01
2.514598965644836426e-01
2.478999793529510498e-01
2.557051777839660645e-01
2.541697919368743896e-01
2.450825870037078857e-01
2.475463300943374634e-01
2.456899881362915039e-01
2.416122406721115112e-01
2.453347444534301758e-01
2.416197508573532104e-01
2.505457401275634766e-01
2.419279515743255615e-01
2.426440268754959106e-01
2.376757860183715820e-01
2.466541677713394165e-01
2.444838136434555054e-01
2.438774108886718750e-01
2.430793941020965576e-01
2.412566244602203369e-01
2.452460825443267822e-01
2.400796860456466675e-01
2.427911013364791870e-01
2.411466240882873535e-01
2.343695759773254395e-01
2.358769476413726807e-01
2.363042086362838745e-01
2.371018379926681519e-01
2.365521937608718872e-01
2.319142967462539673e-01
2.343505024909973145e-01
2.316659241914749146e-01
2.304742336273193359e-01
2.315818965435028076e-01
2.302352637052536011e-01
2.318281382322311401e-01
2.258459329605102539e-01
2.288538813591003418e-01
2.255687117576599121e-01
2.260148972272872925e-01
2.266729474067687988e-01
2.186043709516525269e-01
2.198732048273086548e-01
2.123090326786041260e-01
2.173123806715011597e-01
2.216193974018096924e-01
2.104744762182235718e-01
2.131904512643814087e-01
2.139174938201904297e-01
2.148419618606567383e-01
2.089171856641769409e-01
2.144542038440704346e-01
2.147452831268310547e-01
2.026067674160003662e-01
2.174083888530731201e-01
2.111164629459381104e-01
2.156209051609039307e-01
2.036235034465789795e-01
2.089393734931945801e-01
2.031597644090652466e-01
2.118985056877136230e-01
2.075524330139160156e-01
2.094386070966720581e-01
2.078515738248825073e-01
2.056539654731750488e-01
2.000167369842529297e-01
2.105155140161514282e-01
2.063510119915008545e-01
2.173929214477539062e-01
2.144687026739120483e-01
1.968479007482528687e-01
2.073995023965835571e-01
2.046736180782318115e-01
2.066229581832885742e-01
2.135318815708160400e-01
2.045442312955856323e-01
1.985498666763305664e-01
2.056914269924163818e-01
1.982559859752655029e-01
2.011576294898986816e-01
2.151543647050857544e-01
2.122920155525207520e-01
2.050427645444869995e-01
1.977930963039398193e-01
2.011032849550247192e-01
1.968808621168136597e-01
2.027822136878967285e-01
1.952493041753768921e-01
1.956256181001663208e-01
1.888501495122909546e-01
1.934380382299423218e-01
1.827943921089172363e-01
1.843374967575073242e-01
1.926412135362625122e-01
1.876124888658523560e-01
1.813535988330841064e-01
1.716983765363693237e-01
1.758743077516555786e-01
1.723664402961730957e-01
1.543516516685485840e-01
1.490907073020935059e-01
1.434946060180664062e-01
1.346908807754516602e-01
1.120983287692070007e-01
1.437962651252746582e-01
8.932595700025558472e-02
5.499651655554771423e-02
1.380848884582519531e-02
-1.097253523766994476e-02
4.137736558914184570e-02
-1.079197414219379425e-02
-1.705797016620635986e-02
-1.588379964232444763e-02
-5.281106010079383850e-02
-4.283734038472175598e-02
-5.707454308867454529e-02
-5.087593942880630493e-02
-7.900741696357727051e-02
-7.044176012277603149e-02
-5.970070511102676392e-02
-9.819974005222320557e-02
-1.345663964748382568e-01
-1.374956816434860229e-01
-1.246346533298492432e-01
-1.386391967535018921e-01
-1.725970655679702759e-01
-1.566883772611618042e-01
-1.565721482038497925e-01
-1.696180701255798340e-01
-1.789586097002029419e-01
-1.805071085691452026e-01
-1.916661709547042847e-01
-2.021151334047317505e-01
-2.030855268239974976e-01
-1.953718513250350952e-01
-1.961731910705566406e-01
-2.041323781013488770e-01
-2.013676762580871582e-01
-2.042884975671768188e-01
-2.057434916496276855e-01
-2.057928889989852905e-01
-2.121602743864059448e-01
-2.049085795879364014e-01
-2.114927917718887329e-01
-2.018551230430603027e-01
-2.052509933710098267e-01
-2.049374729394912720e-01
-2.086529880762100220e-01
-2.157771885395050049e-01
-2.224443256855010986e-01
-2.165693491697311401e-01
-2.104202061891555786e-01
-2.078409343957901001e-01
-2.130245119333267212e-01
-2.106878608465194702e-01
-2.133562564849853516e-01
-2.122993916273117065e-01
-2.182682752609252930e-01
-2.176127880811691284e-01
-2.125758528709411621e-01
-2.158864736557006836e-01
-2.159208059310913086e-01
-2.159388512372970581e-01
-2.146874815225601196e-01
-2.149417400360107422e-01
-2.157965004444122314e-01
-2.161385267972946167e-01
-2.155325561761856079e-01
-2.130830436944961548e-01
-2.168918848037719727e-01
-2.147665917873382568e-01
-2.150953114032745361e-01
-2.125696241855621338e-01
-2.149786651134490967e-01
-2.162865549325942993e-01
-2.113272100687026978e-01
-2.147491425275802612e-01
-2.139527648687362671e-01
-2.110475748777389526e-01
-2.157085388898849487e-01
-2.148999720811843872e-01
-2.168167531490325928e-01
-2.146277278661727905e-01
-2.155719101428985596e-01
-2.175721079111099243e-01
-2.156544923782348633e-01
-2.155729383230209351e-01
-2.148308157920837402e-01
-2.153350412845611572e-01
-2.206852287054061890e-01
-2.187309563159942627e-01
-2.221790850162506104e-01
-2.197174727916717529e-01
-2.192506492137908936e-01
-2.202580869197845459e-01
-2.189515829086303711e-01
-2.231087237596511841e-01
-2.257174551486968994e-01
-2.217961251735687256e-01
-2.208154499530792236e-01
-2.238311767578125000e-01
-2.228618562221527100e-01
-2.235917896032333374e-01
-2.260757386684417725e-01
-2.290459126234054565e-01
-2.335546165704727173e-01
-2.275146096944808960e-01
-2.269946783781051636e-01
-2.282904833555221558e-01
-2.327055484056472778e-01
-2.205473482608795166e-01
-2.297516763210296631e-01
-2.318864762783050537e-01
-2.319066971540451050e-01
-2.343990951776504517e-01
-2.275792956352233887e-01
-2.362262904644012451e-01
-2.415119856595993042e-01
-2.387012094259262085e-01
-2.326666116714477539e-01
-2.471022009849548340e-01
-2.539629638195037842e-01
-2.421262562274932861e-01
-2.490040063858032227e-01
-2.376661598682403564e-01
-2.479994148015975952e-01
-2.484648376703262329e-01
-2.636431455612182617e-01
-2.588734924793243408e-01
-2.586620151996612549e-01
-2.701812088489532471e-01
-2.650872170925140381e-01
-2.521743774414062500e-01
-2.691436409950256348e-01
-2.576428949832916260e-01
-2.574816644191741943e-01
-2.566089928150177002e-01
-2.710703611373901367e-01
-2.539534270763397217e-01
-2.643496692180633545e-01
-2.421755194664001465e-01
-2.382688820362091064e-01
-2.585591375827789307e-01
-2.701594531536102295e-01
-2.539647519588470459e-01
-2.528523206710815430e-01
-2.666639089584350586e-01
-2.655954957008361816e-01
-2.652403116226196289e-01
-2.688133120536804199e-01
-2.676257193088531494e-01
-2.626267671585083008e-01
-2.626157402992248535e-01
-2.646200656890869141e-01
-2.641075849533081055e-01
-2.703342139720916748e-01
-2.494029402732849121e-01
-2.515174150466918945e-01
-2.476107925176620483e-01
5.490046739578247070e-02
-8.098106086254119873e-02
1.696873456239700317e-01
2.595897316932678223e-01
2.563146054744720459e-01
2.522971332073211670e-01
2.617861628532409668e-01
2.613180279731750488e-01
2.612499296665191650e-01
2.630762159824371338e-01
2.555259764194488525e-01
2.612063884735107422e-01
2.591005265712738037e-01
2.655881345272064209e-01
2.596741318702697754e-01
2.596365213394165039e-01
-2.621371150016784668e-01
-3.820414654910564423e-03
-2.488593161106109619e-01
-2.345874905586242676e-01
-2.506031692028045654e-01
-2.392833232879638672e-01
-2.381142377853393555e-01
-2.273210585117340088e-01
-2.351955473423004150e-01
-2.194198220968246460e-01
-2.314254492521286011e-01
-2.242991477251052856e-01
-2.126661390066146851e-01
-2.226808965206146240e-01
-2.209605872631072998e-01
-9.493924677371978760e-02
2.434114068746566772e-01
2.310528606176376343e-01
2.266824841499328613e-01
2.361675351858139038e-01
2.243998646736145020e-01
2.104490399360656738e-01
2.256936877965927124e-01
2.091418653726577759e-01
2.252726703882217407e-01
2.270717173814773560e-01
2.317290157079696655e-01
-9.075533598661422729e-02
-1.761915683746337891e-01
-1.917126774787902832e-01
-1.778740733861923218e-01
-1.344297081232070923e-01
-1.157543249428272247e-02
-9.424202144145965576e-02
-6.951333582401275635e-02
-3.297507762908935547e-02
2.157644033432006836e-01
-5.648889765143394470e-02
2.143130600452423096e-01
-2.942212857306003571e-02
1.619382351636886597e-01
1.766198277473449707e-01
1.243614107370376587e-01
1.257767975330352783e-01
1.389479786157608032e-01
1.498942524194717407e-01
1.408519446849822998e-01
1.452626734972000122e-01
1.789013743400573730e-01
2.270641624927520752e-01
3.070758655667304993e-03
2.488346695899963379e-01
2.307823896408081055e-01
2.653381526470184326e-01
6.062131002545356750e-02
2.721024155616760254e-01
2.612119317054748535e-01
2.540393769741058350e-01
2.684138715267181396e-01
2.689095735549926758e-01
2.671947777271270752e-01
2.543684244155883789e-01
2.617011666297912598e-01
2.679645121097564697e-01
2.668598294258117676e-01
2.078243345022201538e-01
2.619548439979553223e-01
2.563165128231048584e-01
2.650488018989562988e-01
1.521071195602416992e-01
2.696179449558258057e-01
1.665792912244796753e-01
2.439645379781723022e-01
2.596478760242462158e-01
2.725618481636047363e-01
2.651250660419464111e-01
2.611466646194458008e-01
2.499106526374816895e-01
2.592114210128784180e-01
2.548492848873138428e-01
2.731632888317108154e-01
2.595710754394531250e-01
2.558280825614929199e-01
2.709386050701141357e-01
2.724380493164062500e-01
2.504003047943115234e-01
2.535254359245300293e-01
2.582095265388488770e-01
2.535944283008575439e-01
2.581782341003417969e-01
2.618331015110015869e-01
2.734040319919586182e-01
2.726913094520568848e-01
2.705976068973541260e-01
2.708091139793395996e-01
2.652334272861480713e-01
2.706489264965057373e-01
2.686836719512939453e-01
2.710417807102203369e-01
2.676904499530792236e-01
2.699756622314453125e-01
2.607053518295288086e-01
2.662498950958251953e-01
2.678594291210174561e-01
2.712122499942779541e-01
2.718018889427185059e-01
2.659724056720733643e-01
2.707883417606353760e-01
2.719722092151641846e-01
2.657172679901123047e-01
2.691086530685424805e-01
2.711623609066009521e-01
2.659186720848083496e-01
2.682993710041046143e-01
2.686254382133483887e-01
2.653930485248565674e-01
2.609465420246124268e-01
2.542018294334411621e-01
2.490825355052947998e-01
2.671374678611755371e-01
2.493861913681030273e-01
2.465186268091201782e-01
2.413911670446395874e-01
2.381143420934677124e-01
2.338650971651077271e-01
2.391617298126220703e-01
2.393172681331634521e-01
2.335951477289199829e-01
2.440408766269683838e-01
2.364629507064819336e-01
2.260301113128662109e-01
2.377960383892059326e-01
2.254378199577331543e-01
2.300759702920913696e-01
2.265041172504425049e-01
2.229348570108413696e-01
2.228836119174957275e-01
2.245746850967407227e-01
2.183393687009811401e-01
2.234850674867630005e-01
2.207635790109634399e-01
2.197549641132354736e-01
2.257213592529296875e-01
2.170180082321166992e-01
2.121286988258361816e-01
2.102131247520446777e-01
2.091071009635925293e-01
2.119533270597457886e-01
2.031349092721939087e-01
2.032957077026367188e-01
1.873812079429626465e-01
1.678885221481323242e-01
1.583238542079925537e-01
1.472736001014709473e-01
1.471040099859237671e-01
1.294542551040649414e-01
1.129883900284767151e-01
1.043690964579582214e-01
8.026356250047683716e-02
7.845029234886169434e-02
5.043800175189971924e-02
6.698916107416152954e-02
4.743376746773719788e-02
2.704894170165061951e-02
3.720472380518913269e-02
2.578728646039962769e-02
-8.800053969025611877e-03
-9.952411055564880371e-03
-4.980425350368022919e-03
-1.940775290131568909e-02
-3.409433737397193909e-02
-3.920741751790046692e-02
-3.622025996446609497e-02
-4.728177562355995178e-02
-6.457329541444778442e-02
-7.478947192430496216e-02
-9.655346721410751343e-02
-1.093955636024475098e-01
-1.288188546895980835e-01
-1.191422715783119202e-01
-1.131178662180900574e-01
-1.100779324769973755e-01
-1.327735781669616699e-01
-1.422012746334075928e-01
-1.453757733106613159e-01
-1.436884850263595581e-01
-1.752024739980697632e-01
-1.503859907388687134e-01
-1.558445692062377930e-01
-1.572202444076538086e-01
-1.697190105915069580e-01
-1.846546232700347900e-01
-1.784263253211975098e-01
-1.848506480455398560e-01
-1.951134800910949707e-01
-1.774290949106216431e-01
-1.691667288541793823e-01
-1.662504076957702637e-01
-1.688475608825683594e-01
-1.862650811672210693e-01
-1.912426352500915527e-01
-2.015746086835861206e-01
-2.106820046901702881e-01
-1.975101977586746216e-01
-1.974661648273468018e-01
-1.933785974979400635e-01
-2.019512653350830078e-01
-2.002323120832443237e-01
-2.092947959899902344e-01
-2.105570733547210693e-01
-2.190874665975570679e-01
-2.118524461984634399e-01
-2.088836580514907837e-01
-2.118321508169174194e-01
-2.182251065969467163e-01
-2.240717858076095581e-01
-2.197404056787490845e-01
-2.213239520788192749e-01
-2.266351133584976196e-01
-2.239512950181961060e-01
-2.155643999576568604e-01
-2.221300154924392700e-01
-2.317192852497100830e-01
-2.399470955133438110e-01
-2.352954596281051636e-01
-2.325787991285324097e-01
-2.428923994302749634e-01
-2.425047010183334351e-01
-2.381962537765502930e-01
-2.389959990978240967e-01
-2.416379451751708984e-01
-2.540893852710723877e-01
-2.547548413276672363e-01
-2.646013498306274414e-01
-2.518977820873260498e-01
-2.568810284137725830e-01
-2.456223368644714355e-01
-2.509111166000366211e-01
-2.515876591205596924e-01
-2.455578893423080444e-01
-2.558816671371459961e-01
-2.568383216857910156e-01
-2.619473040103912354e-01
-2.541588842868804932e-01
-2.575317025184631348e-01
-2.532519400119781494e-01
-2.527374625205993652e-01
-2.357755899429321289e-01
-2.292951345443725586e-01
-2.056246995925903320e-01
-2.263835966587066650e-01
-2.112105637788772583e-01
-2.224699407815933228e-01
-2.201699167490005493e-01
-2.252722382545471191e-01
-2.489496767520904541e-01
-2.324636280536651611e-01
-2.233465462923049927e-01
-2.525817155838012695e-01
-2.446458637714385986e-01
-2.404694557189941406e-01
-2.330924123525619507e-01
-2.246364951133728027e-01
-2.351242154836654663e-01
-2.530300617218017578e-01
-2.572120726108551025e-01
-2.560887932777404785e-01
-2.551445662975311279e-01
-2.516120076179504395e-01
-2.365963011980056763e-01
-2.388458102941513062e-01
-2.419258654117584229e-01
-2.177153229713439941e-01
-2.453815639019012451e-01
-2.310205996036529541e-01
-2.251276820898056030e-01
-2.073475420475006104e-01
-2.590287625789642334e-01
-1.257931590080261230e-01
-1.114356741309165955e-01
-1.067413240671157837e-01
-1.465235464274883270e-02
-4.700201004743576050e-02
3.477732837200164795e-02
1.469465810805559158e-02
2.046486549079418182e-02
-2.514810860157012939e-02
-2.483916282653808594e-01
-2.575775235891342163e-02
-2.504133284091949463e-01
-2.246527075767517090e-01
-1.966309249401092529e-01
-1.927533149719238281e-01
-2.137689590454101562e-01
-1.939425766468048096e-01
-2.114323228597640991e-01
-2.094622999429702759e-01
-1.926089227199554443e-01
-1.346021443605422974e-01
-1.409011892974376678e-02
-4.032188653945922852e-02
-1.748160421848297119e-01
1.375688165426254272e-01
1.640861630439758301e-01
1.937499493360519409e-01
2.010070532560348511e-01
2.109197378158569336e-01
2.210138589143753052e-01
2.179825752973556519e-01
2.197016477584838867e-01
2.260645627975463867e-01
2.316226512193679810e-01
2.288567572832107544e-01
2.237409502267837524e-01
2.258774489164352417e-01
2.262782901525497437e-01
2.286657541990280151e-01
2.323793619871139526e-01
2.361841797828674316e-01
2.130707502365112305e-01
2.041154801845550537e-01
2.353494316339492798e-01
-1.533324420452117920e-01
-1.879232525825500488e-01
-1.926922202110290527e-01
-2.215969413518905640e-01
-2.113007158041000366e-01
-2.330499589443206787e-01
-2.364735305309295654e-01
-2.439457625150680542e-01
-2.383811771869659424e-01
-2.380167692899703979e-01
-2.247596085071563721e-01
-2.155469954013824463e-01
-2.190562933683395386e-01
-2.087890058755874634e-01
2.432874888181686401e-01
-1.927844732999801636e-01
2.566743493080139160e-01
2.539064884185791016e-01
2.544680535793304443e-01
2.536744177341461182e-01
2.508502900600433350e-01
2.506376206874847412e-01
2.520757317543029785e-01
2.541658282279968262e-01
2.496466785669326782e-01
2.547992169857025146e-01
2.553212344646453857e-01
2.418556213378906250e-01
2.559356391429901123e-01
-2.124878168106079102e-01
2.665853798389434814e-01
2.676297128200531006e-01
-2.037250399589538574e-01
-2.184967994689941406e-01
-1.882522255182266235e-01
-2.120282649993896484e-01
-1.822338104248046875e-01
-1.991203576326370239e-01
-1.149510964751243591e-01
2.659347653388977051e-01
2.621021568775177002e-01
2.582608461380004883e-01
2.530945241451263428e-01
-1.410347223281860352e-01
2.554016709327697754e-01
2.555075883865356445e-01
2.596044540405273438e-01
2.577954232692718506e-01
2.618221938610076904e-01
2.619271576404571533e-01
2.600049972534179688e-01
2.614420950412750244e-01
2.656325697898864746e-01
2.702396512031555176e-01
2.629576325416564941e-01
2.631284594535827637e-01
2.712396383285522461e-01
2.643783092498779297e-01
2.630652785301208496e-01
2.672841548919677734e-01
2.689803540706634521e-01
2.697312235832214355e-01
2.657983601093292236e-01
2.685719430446624756e-01
2.673411369323730469e-01
1.294174045324325562e-01
7.975218445062637329e-02
5.910183489322662354e-02
1.801288872957229614e-01
2.482152879238128662e-01
2.450251132249832153e-01
2.255542874336242676e-01
2.391198575496673584e-01
2.449555099010467529e-01
2.469264715909957886e-01
2.496078163385391235e-01
2.557164132595062256e-01
2.656404674053192139e-01
2.626662552356719971e-01
2.515395581722259521e-01
2.497209459543228149e-01
2.535279691219329834e-01
2.434631288051605225e-01
2.392586320638656616e-01
2.467825114727020264e-01
2.604873478412628174e-01
2.669514715671539307e-01
2.494886517524719238e-01
2.596018016338348389e-01
2.473552674055099487e-01
2.495130598545074463e-01
2.394641041755676270e-01
2.367036342620849609e-01
2.424187064170837402e-01
2.313994616270065308e-01
2.393731027841567993e-01
2.429163306951522827e-01
2.320376187562942505e-01
2.356363534927368164e-01
2.292163223028182983e-01
2.270711958408355713e-01
2.227386236190795898e-01
2.244419604539871216e-01
2.214341163635253906e-01
2.148840874433517456e-01
2.121227830648422241e-01
2.160357832908630371e-01
2.120493650436401367e-01
2.141712307929992676e-01
2.175502926111221313e-01
2.161562591791152954e-01
2.149342000484466553e-01
2.044699937105178833e-01
1.942323744297027588e-01
1.949866414070129395e-01
1.940647363662719727e-01
1.994660645723342896e-01
1.952220201492309570e-01
1.854475140571594238e-01
1.830261498689651489e-01
1.847250014543533325e-01
1.697730869054794312e-01
1.711235493421554565e-01
1.667426675558090210e-01
1.654683351516723633e-01
1.653987765312194824e-01
1.607399284839630127e-01
1.650409102439880371e-01
1.515839546918869019e-01
1.410479247570037842e-01
1.383076161146163940e-01
1.340022385120391846e-01
1.315674632787704468e-01
1.261145919561386108e-01
1.025428995490074158e-01
1.283258497714996338e-01
1.217393949627876282e-01
1.170358657836914062e-01
9.275417774915695190e-02
6.694735586643218994e-02
-8.470136672258377075e-02
-7.380615919828414917e-02
3.205002471804618835e-02
-9.350560605525970459e-03
-1.146187074482440948e-02
-4.161441233009099960e-03
-9.551738388836383820e-03
-1.559711061418056488e-02
-1.097605973482131958e-01
-9.335850179195404053e-02
-4.859080538153648376e-02
-6.055052205920219421e-02
-5.739757791161537170e-02
-6.588190793991088867e-02
-6.480292975902557373e-02
-6.893985718488693237e-02
-1.063001826405525208e-01
-1.078669875860214233e-01
-9.358157962560653687e-02
-9.456333518028259277e-02
-1.152340024709701538e-01
-9.973422437906265259e-02
-1.067152693867683411e-01
-1.018617674708366394e-01
-1.280537098646163940e-01
-1.327423900365829468e-01
-1.287479847669601440e-01
-1.495205760002136230e-01
-1.402420699596405029e-01
-1.450376063585281372e-01
-1.286240220069885254e-01
-1.495264768600463867e-01
-1.568990498781204224e-01
-1.611780077219009399e-01
-1.642056107521057129e-01
-1.738639920949935913e-01
-1.960917413234710693e-01
-1.622114628553390503e-01
-1.716810017824172974e-01
-1.671662032604217529e-01
-1.824846714735031128e-01
-1.849574297666549683e-01
-1.820221543312072754e-01
-1.971163004636764526e-01
-2.014550268650054932e-01
-2.023307234048843384e-01
-1.923583149909973145e-01
-1.913523375988006592e-01
-1.972970515489578247e-01
-1.899347156286239624e-01
-1.886953115463256836e-01
-1.971988379955291748e-01
-2.131186723709106445e-01
-2.026984393596649170e-01
-2.088435590267181396e-01
-2.073293477296829224e-01
-2.134922146797180176e-01
-2.151930928230285645e-01
-2.122605443000793457e-01
-2.266836017370223999e-01
-2.355793565511703491e-01
-2.271972596645355225e-01
-2.241164743900299072e-01
-2.303684353828430176e-01
-2.268867492675781250e-01
-2.505039870738983154e-01
-2.498197406530380249e-01
-2.600840628147125244e-01
-2.569158971309661865e-01
-2.549821436405181885e-01
-2.518772184848785400e-01
-2.585991919040679932e-01
-2.638262212276458740e-01
-2.602062821388244629e-01
-2.557499706745147705e-01
-2.602219581604003906e-01
-2.605262100696563721e-01
-2.504716813564300537e-01
-2.214874625205993652e-01
-2.206909358501434326e-01
-2.446274757385253906e-01
-2.321373075246810913e-01
-2.482520490884780884e-01
-2.567869126796722412e-01
-2.186752557754516602e-01
-2.340542674064636230e-01
-2.241126149892807007e-01
-2.401088327169418335e-01
-2.580860853195190430e-01
-2.566938102245330811e-01
-2.596224248409271240e-01
-9.786693751811981201e-02
-1.023979857563972473e-01
-8.562582544982433319e-03
-2.639958262443542480e-01
-2.670727372169494629e-01
4.209396243095397949e-02
1.014066487550735474e-01
1.784686744213104248e-01
1.541324555873870850e-01
1.887174397706985474e-01
2.333750128746032715e-01
2.547979652881622314e-01
2.072430402040481567e-01
2.579176127910614014e-01
-2.518705427646636963e-01
2.602120339870452881e-01
2.623520493507385254e-01
2.534916102886199951e-01
-2.312175631523132324e-01
-2.320154905319213867e-01
-2.664833962917327881e-01
-2.686837017536163330e-01
-2.646055221557617188e-01
-1.181420460343360901e-01
-2.628754377365112305e-01
-1.806774139404296875e-01
2.502678930759429932e-01
2.647255957126617432e-01
2.514834403991699219e-01
-2.349720448255538940e-01
2.411620169878005981e-01
2.348179519176483154e-01
2.500901818275451660e-01
2.379545867443084717e-01
2.259070426225662231e-01
2.200653105974197388e-01
2.365621626377105713e-01
1.706239879131317139e-01
9.761131554841995239e-02
2.913983911275863647e-02
9.075559675693511963e-02
1.169850975275039673e-01
8.010721206665039062e-02
2.940648607909679413e-02
-3.197483718395233154e-02
-1.627639085054397583e-01
-1.920054852962493896e-01
-1.185329630970954895e-01
-1.207796856760978699e-01
-8.568717539310455322e-02
-7.938882708549499512e-02
-4.898329451680183411e-02
-6.455926597118377686e-02
-1.350126713514328003e-01
-1.330082416534423828e-01
-1.361529529094696045e-01
-1.208546534180641174e-01
-9.119705855846405029e-02
-9.315340220928192139e-02
-1.221131905913352966e-01
-1.096105426549911499e-01
-1.293216347694396973e-01
-1.418392062187194824e-01
-1.247642561793327332e-01
-1.297622770071029663e-01
-1.276406794786453247e-01
-1.169895455241203308e-01
-1.284197270870208740e-01
-1.387553364038467407e-01
-1.328647285699844360e-01
-1.488463431596755981e-01
-1.458231508731842041e-01
-1.648836284875869751e-01
-1.619490832090377808e-01
-1.598048508167266846e-01
-1.570882797241210938e-01
-1.544124186038970947e-01
-1.582410484552383423e-01
-1.632789820432662964e-01
-1.699793487787246704e-01
-1.821154356002807617e-01
-1.718996763229370117e-01
-1.715713143348693848e-01
-1.567922532558441162e-01
-1.474645882844924927e-01
-1.513699740171432495e-01
-1.394812166690826416e-01
-1.577820777893066406e-01
-1.397493332624435425e-01
-1.845357269048690796e-01
-1.457698494195938110e-01
-1.493993252515792847e-01
-1.424761563539505005e-01
-1.840811073780059814e-01
-1.682697981595993042e-01
-1.769465804100036621e-01
-1.617695540189743042e-01
-1.551586538553237915e-01
-1.517382115125656128e-01
-1.421442478895187378e-01
-1.452048420906066895e-01
-1.629434973001480103e-01
-1.686848551034927368e-01
-8.924084156751632690e-02
-1.819675564765930176e-01
-1.794490367174148560e-01
-1.604818701744079590e-01
-9.135583043098449707e-02
-1.921264231204986572e-01
3.075053170323371887e-02
-1.555245667695999146e-01
-1.036457195878028870e-01
-3.118207305669784546e-02
-2.718326821923255920e-02
-3.306366503238677979e-02
-1.537496447563171387e-01
-1.964338570833206177e-01
-7.008008658885955811e-02
-6.618445366621017456e-02
-1.129268854856491089e-01
-2.038550674915313721e-01
-1.906097531318664551e-01
-1.849992275238037109e-01
-1.536351442337036133e-01
-1.930330097675323486e-01
-1.998902857303619385e-01
-2.121435999870300293e-01
-2.199701964855194092e-01
-1.328064352273941040e-01
-8.630801737308502197e-02
1.928761154413223267e-01
-2.189957797527313232e-01
-1.191166229546070099e-02
2.181171029806137085e-01
2.194787263870239258e-01
2.391655147075653076e-01
2.123861759901046753e-01
2.184282541275024414e-01
2.431878000497817993e-01
2.399810403585433960e-01
2.207687497138977051e-01
2.412458360195159912e-01
-1.909535825252532959e-01
2.437185049057006836e-01
2.540333271026611328e-01
-1.805031746625900269e-01
-2.060640007257461548e-01
-2.090445160865783691e-01
-2.183897197246551514e-01
-2.099310159683227539e-01
-2.104238867759704590e-01
2.562810182571411133e-01
-1.756844222545623779e-01
2.372481375932693481e-01
2.442597448825836182e-01
2.395354211330413818e-01
2.338096797466278076e-01
2.311407327651977539e-01
2.361613214015960693e-01
2.368393093347549438e-01
2.300464808940887451e-01
2.300347536802291870e-01
2.430407404899597168e-01
2.523569166660308838e-01
-1.342068463563919067e-01
-3.151308745145797729e-02
2.523411214351654053e-01
2.482920289039611816e-01
2.538037300109863281e-01
2.381624132394790649e-01
2.652863860130310059e-01
2.493392229080200195e-01
2.433344274759292603e-01
2.388381958007812500e-01
2.602627575397491455e-01
2.374069243669509888e-01
2.447473555803298950e-01
2.542197108268737793e-01
2.600674033164978027e-01
2.454803138971328735e-01
1.849252432584762573e-01
2.554678618907928467e-01
2.527866661548614502e-01
2.240334898233413696e-01
2.486962080001831055e-01
2.395179718732833862e-01
2.355075925588607788e-01
2.421651780605316162e-01
2.489683777093887329e-01
2.324549555778503418e-01
2.408202737569808960e-01
2.323589324951171875e-01
2.446262538433074951e-01
2.368614226579666138e-01
2.348323017358779907e-01
2.367383688688278198e-01
2.317249774932861328e-01
2.336359024047851562e-01
2.288096547126770020e-01
2.310436218976974487e-01
2.318109124898910522e-01
2.395052909851074219e-01
2.309850752353668213e-01
2.352600991725921631e-01
2.326249033212661743e-01
2.307596355676651001e-01
2.246862649917602539e-01
2.165052443742752075e-01
2.266888618469238281e-01
2.251645326614379883e-01
2.149349600076675415e-01
2.250558733940124512e-01
2.189011871814727783e-01
2.131217271089553833e-01
2.250304520130157471e-01
2.194928973913192749e-01
2.222903221845626831e-01
2.081130445003509521e-01
2.053866982460021973e-01
2.007458060979843140e-01
2.006772607564926147e-01
1.951635330915451050e-01
2.013815343379974365e-01
1.919408589601516724e-01
1.884878575801849365e-01
1.827747821807861328e-01
1.891039758920669556e-01
1.853756308555603027e-01
1.852121204137802124e-01
1.820668578147888184e-01
1.674459576606750488e-01
1.557459980249404907e-01
1.576436758041381836e-01
1.629552692174911499e-01
1.682012230157852173e-01
1.583927422761917114e-01
1.560898572206497192e-01
1.466197073459625244e-01
1.496773958206176758e-01
1.359916627407073975e-01
1.248848363757133484e-01
1.288217753171920776e-01
1.132705584168434143e-01
1.154787018895149231e-01
1.145048215985298157e-01
9.839458763599395752e-02
1.000477299094200134e-01
9.676145762205123901e-02
9.506548941135406494e-02
9.383387118577957153e-02
9.218548983335494995e-02
8.447494357824325562e-02
8.013933151960372925e-02
7.283217459917068481e-02
6.281032413244247437e-02
6.664592027664184570e-02
6.357346475124359131e-02
7.211279869079589844e-02
6.991745531558990479e-02
6.721425056457519531e-02
5.692295730113983154e-02
5.803107097744941711e-02
5.121612548828125000e-02
5.725208669900894165e-02
3.685814514756202698e-02
2.426892518997192383e-02
2.249209210276603699e-02
2.728683315217494965e-02
3.054318763315677643e-02
4.376027360558509827e-02
4.935969412326812744e-02
2.655259333550930023e-02
1.264134794473648071e-02
-4.380723461508750916e-02
-3.797269612550735474e-02
2.201169170439243317e-02
-1.556549221277236938e-03
-6.505954544991254807e-03
-1.553293503820896149e-02
-7.969280332326889038e-02
-5.021436139941215515e-02
-7.386529445648193359e-02
-7.809785008430480957e-02
-6.852102279663085938e-02
-3.278056532144546509e-02
-2.381343767046928406e-02
-4.911101609468460083e-02
-1.127978637814521790e-01
-8.656997978687286377e-02
-1.066476106643676758e-01
-7.001577317714691162e-02
-1.026879325509071350e-01
-6.795717775821685791e-02
-7.991457730531692505e-02
-8.874803036451339722e-02
-1.564481556415557861e-01
-1.466228663921356201e-01
8.241506293416023254e-03
-3.362175822257995605e-02
-4.348924849182367325e-03
-8.152188360691070557e-02
7.470450364053249359e-04
-1.154472865164279938e-02
-4.256570711731910706e-02
-1.897393167018890381e-01
-1.443977653980255127e-01
-1.292145997285842896e-01
-1.018712446093559265e-01
-1.609406173229217529e-01
-1.514316201210021973e-01
-1.461039781570434570e-01
-1.475977003574371338e-01
-1.029179990291595459e-01
-1.728958636522293091e-01
-9.857656061649322510e-02
-1.651589125394821167e-01
-8.183621615171432495e-02
-1.396547555923461914e-01
-1.749525517225265503e-01
-1.348743736743927002e-01
-1.886568218469619751e-01
-1.088253110647201538e-01
-1.866089999675750732e-01
-1.055727303028106689e-01
-6.570862978696823120e-02
-6.404723227024078369e-02
-6.610053032636642456e-02
-1.236038058996200562e-01
-1.446490883827209473e-01
-1.971209943294525146e-01
-1.666430383920669556e-01
-1.488775461912155151e-01
-1.242952048778533936e-01
-1.384051889181137085e-01
-1.494249254465103149e-01
-1.562767624855041504e-01
-1.561427414417266846e-01
-1.472288668155670166e-01
-1.476140320301055908e-01
-1.459191590547561646e-01
-1.431759744882583618e-01
-1.556129455566406250e-01
-1.643674820661544800e-01
-1.672604978084564209e-01
-1.697332412004470825e-01
-1.698877215385437012e-01
-1.664378941059112549e-01
-1.620189398527145386e-01
-1.661023050546646118e-01
-1.665590554475784302e-01
-1.688023507595062256e-01
-1.671498715877532959e-01
-1.765797287225723267e-01
-1.807305961847305298e-01
-1.712040603160858154e-01
-1.752322316169738770e-01
-1.757626384496688843e-01
-1.751073151826858521e-01
-1.791729629039764404e-01
-1.747435033321380615e-01
-1.840145140886306763e-01
-1.817405819892883301e-01
-1.747266203165054321e-01
-1.737852543592453003e-01
-1.752319335937500000e-01
-1.780735552310943604e-01
-1.786921322345733643e-01
-1.782954186201095581e-01
-1.821659058332443237e-01
-1.844809353351593018e-01
-1.787438243627548218e-01
-1.794011890888214111e-01
-1.804464459419250488e-01
-1.844095140695571899e-01
-1.824826002120971680e-01
-1.842391192913055420e-01
-1.844937205314636230e-01
-1.888741105794906616e-01
-1.829234957695007324e-01
-1.828293800354003906e-01
-1.854811310768127441e-01
-1.849220544099807739e-01
-1.921284049749374390e-01
-1.881078481674194336e-01
-1.944860219955444336e-01
-1.987383216619491577e-01
-1.905319988727569580e-01
-1.952040642499923706e-01
-1.922229826450347900e-01
-2.006163895130157471e-01
-1.968011260032653809e-01
-2.002072334289550781e-01
-2.142525017261505127e-01
-2.147681713104248047e-01
-2.082483917474746704e-01
-2.019380182027816772e-01
-2.114041000604629517e-01
-2.178923040628433228e-01
-2.163020670413970947e-01
-2.151678055524826050e-01
-2.200009822845458984e-01
-2.264438569545745850e-01
-2.244856953620910645e-01
-2.158674597740173340e-01
-2.268786877393722534e-01
-2.236033678054809570e-01
-2.285498827695846558e-01
-2.278263270854949951e-01
-2.270789146423339844e-01
-2.384529560804367065e-01
-2.327653318643569946e-01
-2.338977605104446411e-01
-2.312534302473068237e-01
-2.401260286569595337e-01
-2.366685122251510620e-01
-2.414184808731079102e-01
-2.395979762077331543e-01
-2.443729490041732788e-01
-2.469612360000610352e-01
-2.501274049282073975e-01
-2.447667270898818970e-01
-2.363013476133346558e-01
-2.397306263446807861e-01
-2.296682000160217285e-01
-2.530790865421295166e-01
-2.329746186733245850e-01
-2.447680979967117310e-01
-2.295614928007125854e-01
-2.300502806901931763e-01
-2.084766328334808350e-01
-2.614787817001342773e-01
-2.490362673997879028e-01
-2.481936067342758179e-01
-2.435936331748962402e-01
-2.462213486433029175e-01
-2.288447469472885132e-01
-1.889715194702148438e-01
-2.629985213279724121e-01
-2.696878612041473389e-01
-2.599486410617828369e-01
-2.602729499340057373e-01
-2.682091891765594482e-01
-2.687028944492340088e-01
-2.579971253871917725e-01
-2.624141275882720947e-01
-2.644639909267425537e-01
-2.535036504268646240e-01
-2.578226029872894287e-01
-2.537916004657745361e-01
-2.520353794097900391e-01
-2.572298645973205566e-01
-2.583641111850738525e-01
-1.469327658414840698e-01
-2.273354530334472656e-01
-2.087397277355194092e-01
1.245443895459175110e-01
1.245222017168998718e-01
1.377036124467849731e-01
1.391146928071975708e-01
1.743353158235549927e-01
1.721026599407196045e-01
1.705924719572067261e-01
1.658829152584075928e-01
1.199880465865135193e-01
1.550632864236831665e-01
1.376039832830429077e-01
1.142514348030090332e-01
-2.557672560214996338e-01
-1.595653891563415527e-01
-1.942695230245590210e-01
-2.380860298871994019e-01
-2.274059653282165527e-01
-1.749875843524932861e-01
-2.309165298938751221e-01
-2.472562342882156372e-01
-2.459597736597061157e-01
-2.383266985416412354e-01
-2.466023564338684082e-01
-1.718334555625915527e-01
-2.430385053157806396e-01
-2.142273485660552979e-01
-2.521746754646301270e-01
1.181417517364025116e-02
-1.817213930189609528e-02
-4.987408593297004700e-02
-4.877686500549316406e-03
-1.131622716784477234e-01
-1.128711253404617310e-01
-1.128031015396118164e-01
-1.410128027200698853e-01
-2.431869506835937500e-01
-2.044427096843719482e-01
-1.989971101284027100e-01
-1.995591670274734497e-01
-2.070278376340866089e-01
-1.739482730627059937e-01
-1.847615689039230347e-01
-1.839773058891296387e-01
-2.055305838584899902e-01
-1.885502338409423828e-01
-1.887195706367492676e-01
-1.816827803850173950e-01
-1.835345923900604248e-01
-1.958358585834503174e-01
-1.719157248735427856e-01
-1.822339445352554321e-01
-2.002086043357849121e-01
-1.885724365711212158e-01
-1.795085817575454712e-01
-1.905150711536407471e-01
-1.945236623287200928e-01
-2.033758610486984253e-01
-1.990906596183776855e-01
-1.872623413801193237e-01
-1.909264624118804932e-01
-1.975968033075332642e-01
-1.901277154684066772e-01
-1.838612854480743408e-01
-1.923934519290924072e-01
-2.057431191205978394e-01
-1.986612230539321899e-01
-1.973465681076049805e-01
-1.976257711648941040e-01
-2.108977138996124268e-01
-1.814450174570083618e-01
-2.002864927053451538e-01
-2.038502693176269531e-01
-2.081186473369598389e-01
-2.204342335462570190e-01
-2.075390219688415527e-01
-2.075696736574172974e-01
-1.996501386165618896e-01
-2.025765478610992432e-01
-2.121683657169342041e-01
-2.161705195903778076e-01
-2.236107140779495239e-01
-1.823439300060272217e-01
-1.968967765569686890e-01
-1.969521045684814453e-01
-1.981812268495559692e-01
-1.834946870803833008e-01
-1.729319840669631958e-01
-2.148989886045455933e-01
-2.355865836143493652e-01
-2.353394925594329834e-01
-1.813311427831649780e-01
-1.985035240650177002e-01
-1.874020993709564209e-01
-2.304354161024093628e-01
-2.072471529245376587e-01
-1.707995384931564331e-01
-1.243441626429557800e-01
-2.460883706808090210e-01
-2.072643935680389404e-01
-1.304681152105331421e-01
-1.100071519613265991e-01
-1.568106710910797119e-01
-8.665325492620468140e-02
-1.682257950305938721e-01
-8.970438688993453979e-02
-1.188378557562828064e-01
-1.560506820678710938e-01
-2.158328592777252197e-01
-2.028508484363555908e-01
-1.996127068996429443e-01
-1.936897635459899902e-01
-2.129802703857421875e-01
-1.484634131193161011e-01
-1.980487853288650513e-01
-2.050067782402038574e-01
-1.905637532472610474e-01
-1.911056637763977051e-01
-1.716991364955902100e-01
-1.746648401021957397e-01
-1.902932226657867432e-01
-1.932381242513656616e-01
-4.534263536334037781e-02
1.038575321435928345e-01
1.462849080562591553e-01
1.353334784507751465e-01
-1.532288938760757446e-01
1.892051398754119873e-01
1.757422089576721191e-01
1.898463964462280273e-01
1.938479542732238770e-01
1.682746410369873047e-01
1.936522126197814941e-01
2.007490247488021851e-01
1.889178007841110229e-01
2.051609456539154053e-01
-8.635322004556655884e-02
2.015231847763061523e-01
1.785250604152679443e-01
2.042190283536911011e-01
-7.906068861484527588e-02
-1.116733998060226440e-01
-1.177659630775451660e-01
-4.081236571073532104e-02
-8.232233673334121704e-02
2.571370005607604980e-01
-5.553514510393142700e-02
1.228463649749755859e-01
2.010818421840667725e-01
2.108337730169296265e-01
1.600392907857894897e-01
1.875425279140472412e-01
2.263492196798324585e-01
2.203645259141921997e-01
2.381137907505035400e-01
2.348954677581787109e-01
2.535758316516876221e-01
2.274661362171173096e-01
2.187795042991638184e-01
2.375349253416061401e-01
1.244814246892929077e-01
2.372729331254959106e-01
1.604287177324295044e-01
6.381418555974960327e-02
1.670148074626922607e-01
2.380776405334472656e-01
7.574103027582168579e-02
7.918940484523773193e-02
1.471388190984725952e-01
2.351026087999343872e-01
1.904329210519790649e-01
2.412104457616806030e-01
1.964217871427536011e-01
2.474807947874069214e-01
2.353088259696960449e-01
2.430385798215866089e-01
2.455798536539077759e-01
2.101282030344009399e-01
2.313607335090637207e-01
2.183167934417724609e-01
1.969599574804306030e-01
1.852147430181503296e-01
2.118715345859527588e-01
1.954887360334396362e-01
2.238547354936599731e-01
2.182579189538955688e-01
2.090096473693847656e-01
1.970163583755493164e-01
2.107154726982116699e-01
1.666003018617630005e-01
1.764661520719528198e-01
1.629368811845779419e-01
1.955624073743820190e-01
2.240757942199707031e-01
1.927625238895416260e-01
2.215294390916824341e-01
2.133066207170486450e-01
2.119841426610946655e-01
2.043357640504837036e-01
2.218152433633804321e-01
2.113198786973953247e-01
2.126521170139312744e-01
1.828298717737197876e-01
1.950632184743881226e-01
2.012149840593338013e-01
2.107643932104110718e-01
2.046440392732620239e-01
1.962571144104003906e-01
1.897332519292831421e-01
2.092806696891784668e-01
1.780405640602111816e-01
1.678133755922317505e-01
1.392494142055511475e-01
1.692597121000289917e-01
1.451927721500396729e-01
1.593249589204788208e-01
1.594921946525573730e-01
1.554904580116271973e-01
1.926202028989791870e-01
1.907291412353515625e-01
1.853940039873123169e-01
1.950538456439971924e-01
1.759765297174453735e-01
1.885869354009628296e-01
1.592710763216018677e-01
1.981412917375564575e-01
1.711432039737701416e-01
1.644615381956100464e-01
1.719786524772644043e-01
2.058131247758865356e-01
1.800308227539062500e-01
1.893640309572219849e-01
1.775354146957397461e-01
1.738485991954803467e-01
1.666390001773834229e-01
1.759071350097656250e-01
1.535303443670272827e-01
1.585337072610855103e-01
1.598496288061141968e-01
1.685453057289123535e-01
1.734630912542343140e-01
1.778818964958190918e-01
1.616602689027786255e-01
1.401626914739608765e-01
1.210795417428016663e-01
1.369002610445022583e-01
1.447538137435913086e-01
1.569130569696426392e-01
1.586445420980453491e-01
1.483510434627532959e-01
1.512126177549362183e-01
1.553346663713455200e-01
1.555612087249755859e-01
1.607711762189865112e-01
1.462997049093246460e-01
1.274393498897552490e-01
9.372030198574066162e-02
1.232170388102531433e-01
9.173052012920379639e-02
-5.614567920565605164e-02
6.213336810469627380e-02
-7.914161682128906250e-02
-9.956318140029907227e-02
-1.043577566742897034e-01
-9.056279808282852173e-02
-1.033523082733154297e-01
-1.115085855126380920e-01
-1.144691705703735352e-01
-9.199800342321395874e-02
-1.170031428337097168e-01
-1.322937607765197754e-01
-1.349783986806869507e-01
-1.550027281045913696e-01
-1.437921673059463501e-01
-1.464138329029083252e-01
-1.542035043239593506e-01
-1.264171600341796875e-01
-1.527769267559051514e-01
-1.324827373027801514e-01
-1.496784389019012451e-01
-1.579750478267669678e-01
-1.709001213312149048e-01
-1.809131354093551636e-01
-1.624437123537063599e-01
-1.536929607391357422e-01
-1.444969326257705688e-01
-1.546140760183334351e-01
-1.544602662324905396e-01
-1.700039803981781006e-01
-1.601489484310150146e-01
-1.724995821714401245e-01
-1.703105717897415161e-01
-1.561971902847290039e-01
-1.625427156686782837e-01
-1.731623858213424683e-01
-1.707144230604171753e-01
-1.771086156368255615e-01
-1.727674454450607300e-01
-1.723615378141403198e-01
-1.772409826517105103e-01
-1.648190915584564209e-01
-1.742775738239288330e-01
-1.665763258934020996e-01
-1.621740758419036865e-01
-1.705268621444702148e-01
-1.790475249290466309e-01
-1.819092184305191040e-01
-1.831726282835006714e-01
-1.700985729694366455e-01
-1.683825850486755371e-01
-1.655212491750717163e-01
-1.712011098861694336e-01
-1.853124052286148071e-01
-1.796491742134094238e-01
-1.803502589464187622e-01
-1.763044446706771851e-01
-1.845199167728424072e-01
-1.757487505674362183e-01
-1.862705349922180176e-01
-1.983289569616317749e-01
-1.920529901981353760e-01
-1.943514049053192139e-01
-1.946221739053726196e-01
-1.870790719985961914e-01
-1.768730729818344116e-01
-1.846029162406921387e-01
-1.811245381832122803e-01
-1.874304264783859253e-01
-2.016126960515975952e-01
-1.950442194938659668e-01
-2.095374315977096558e-01
-2.170486152172088623e-01
-2.061403244733810425e-01
-2.091849148273468018e-01
-1.883046030998229980e-01
-1.907852143049240112e-01
-1.983431577682495117e-01
-2.229089289903640747e-01
-2.167392224073410034e-01
-2.194657772779464722e-01
-2.134116739034652710e-01
-2.160345166921615601e-01
-2.253883481025695801e-01
-2.233028262853622437e-01
-2.123913764953613281e-01
-2.090832442045211792e-01
-1.858477890491485596e-01
-2.219021320343017578e-01
-2.070617675781250000e-01
-2.034818530082702637e-01
-2.118581831455230713e-01
-2.188266962766647339e-01
-2.057156115770339966e-01
-2.248648107051849365e-01
-2.411554157733917236e-01
-2.208629995584487915e-01
-2.321983128786087036e-01
-2.447534948587417603e-01
-2.173042595386505127e-01
-2.144678831100463867e-01
-2.391570806503295898e-01
-2.390956878662109375e-01
-2.317052334547042847e-01
-2.395278215408325195e-01
-2.404716014862060547e-01
-2.372452169656753540e-01
-2.502601444721221924e-01
-2.383451610803604126e-01
-2.376611977815628052e-01
-2.228340059518814087e-01
-2.381855845451354980e-01
-2.289810180664062500e-01
-2.164563834667205811e-01
-2.101593166589736938e-01
-2.131605893373489380e-01
-1.826608777046203613e-01
-2.245318293571472168e-01
-1.962948590517044067e-01
-1.511472463607788086e-01
-1.888585686683654785e-01
-2.124292254447937012e-01
-1.501437127590179443e-01
-1.976120173931121826e-01
-2.082982808351516724e-01
-2.229218184947967529e-01
-2.603190839290618896e-01
-2.233251482248306274e-01
-2.344441860914230347e-01
-2.368308603763580322e-01
-2.408407777547836304e-01
-2.081441581249237061e-01
-2.455700337886810303e-01
-2.334748655557632446e-01
-2.615330815315246582e-01
-2.692613601684570312e-01
-2.474209070205688477e-01
-1.924982517957687378e-01
-1.862999051809310913e-01
-1.580722481012344360e-01
-1.242820248007774353e-01
-1.926258802413940430e-01
-2.502602338790893555e-01
-2.433384060859680176e-01
-2.272341251373291016e-01
-2.335258722305297852e-01
-2.347229272127151489e-01
-2.285459488630294800e-01
-2.351307272911071777e-01
-2.541632056236267090e-01
-2.630439996719360352e-01
-2.623417377471923828e-01
-2.736029028892517090e-01
-2.590365409851074219e-01
-2.056744694709777832e-01
-2.062438875436782837e-01
-1.809694170951843262e-01
-1.737302392721176147e-01
-2.607075572013854980e-01
-1.984977275133132935e-01
-1.932797729969024658e-01
-2.456057667732238770e-01
-2.367642670869827271e-01
-2.279766350984573364e-01
-2.554888427257537842e-01
-2.412025332450866699e-01
-2.475639581680297852e-01
-2.598882615566253662e-01
-2.505835294723510742e-01
-2.432173937559127808e-01
-2.469854801893234253e-01
-2.126747518777847290e-01
-1.941037923097610474e-01
-2.376774698495864868e-01
-2.344594597816467285e-01
-2.415524572134017944e-01
-2.293402850627899170e-01
-2.192845046520233154e-01
-2.346533685922622681e-01
-2.159268707036972046e-01
-1.954302787780761719e-01
-2.107175886631011963e-01
-2.286064028739929199e-01
-1.960688680410385132e-01
-2.154885679483413696e-01
-2.296490222215652466e-01
-2.171087563037872314e-01
-2.136836349964141846e-01
-2.212844789028167725e-01
-1.798597872257232666e-01
-2.434165179729461670e-01
-1.769532412290573120e-01
-1.931870728731155396e-01
-2.073542624711990356e-01
-2.138921469449996948e-01
-1.711669266223907471e-01
-1.826938688755035400e-01
-2.000653594732284546e-01
-1.852913349866867065e-01
-1.806393414735794067e-01
-2.229165881872177124e-01
-2.082766443490982056e-01
-2.263581752777099609e-01
-1.781761646270751953e-01
-1.918442547321319580e-01
-1.624999046325683594e-01
-1.936681568622589111e-01
-2.094820737838745117e-01
-2.125963568687438965e-01
-1.889913231134414673e-01
-1.442519873380661011e-01
-1.306596547365188599e-01
-3.883990272879600525e-02
-1.471386849880218506e-01
-1.622175723314285278e-01
-1.700491011142730713e-01
-4.416349809616804123e-03
-7.037160545587539673e-02
3.656056523323059082e-02
-5.957939475774765015e-02
7.400114834308624268e-02
6.103758886456489563e-02
8.986680954694747925e-02
8.511959016323089600e-02
1.058383509516716003e-01
1.010183840990066528e-01
1.169258132576942444e-01
1.291687041521072388e-01
1.423285305500030518e-01
8.777149021625518799e-02
6.887529790401458740e-02
2.207801491022109985e-01
2.320993393659591675e-01
-1.961730420589447021e-02
-1.789152249693870544e-02
2.096619084477424622e-02
4.222673922777175903e-02
5.471398681402206421e-02
2.614676356315612793e-01
2.072957456111907959e-01
7.359359413385391235e-02
2.451689392328262329e-01
2.317077070474624634e-01
2.329308688640594482e-01
2.377670556306838989e-01
2.300347536802291870e-01
2.344305962324142456e-01
2.320441603660583496e-01
2.324779182672500610e-01
2.579493224620819092e-01
2.542102634906768799e-01
1.275601089000701904e-01
2.608395814895629883e-01
6.068440899252891541e-02
2.681112289428710938e-01
6.909550726413726807e-02
1.906030811369419098e-02
2.358255535364151001e-01
2.655879557132720947e-01
4.396798089146614075e-02
2.663432657718658447e-01
7.761519402265548706e-02
2.402454316616058350e-01
1.493308246135711670e-01
2.618802487850189209e-01
2.511340975761413574e-01
2.685200572013854980e-01
9.797661751508712769e-02
2.460164278745651245e-01
2.489873170852661133e-01
2.707620263099670410e-01
2.487967312335968018e-01
2.470806688070297241e-01
2.695161700248718262e-01
2.685749232769012451e-01
2.638351321220397949e-01
2.686370015144348145e-01
2.653187215328216553e-01
2.683947086334228516e-01
2.673164606094360352e-01
2.656266391277313232e-01
2.689304947853088379e-01
2.683573961257934570e-01
1.572021692991256714e-01
2.536858618259429932e-01
2.651252150535583496e-01
2.552299499511718750e-01
1.922563463449478149e-01
2.104121595621109009e-01
1.971989125013351440e-01
2.474744319915771484e-01
2.523379027843475342e-01
2.276997268199920654e-01
2.013491839170455933e-01
2.599169611930847168e-01
2.603375613689422607e-01
2.726880311965942383e-01
2.677085399627685547e-01
2.728861570358276367e-01
2.074330747127532959e-01
2.589309513568878174e-01
2.721353769302368164e-01
2.711025178432464600e-01
2.576398849487304688e-01
2.236258238554000854e-01
2.712366580963134766e-01
2.669678628444671631e-01
2.678349018096923828e-01
2.643082439899444580e-01
2.600178122520446777e-01
2.728978097438812256e-01
2.737579345703125000e-01
2.661754190921783447e-01
2.532745897769927979e-01
2.681195735931396484e-01
1.979954838752746582e-01
2.642805278301239014e-01
2.708311975002288818e-01
2.592960894107818604e-01
1.889385282993316650e-01
2.288286685943603516e-01
2.673391401767730713e-01
2.622656822204589844e-01
2.624910473823547363e-01
2.500374615192413330e-01
2.701235413551330566e-01
2.698270380496978760e-01
2.621240913867950439e-01
2.547236382961273193e-01
2.407242655754089355e-01
2.236671596765518188e-01
1.996767073869705200e-01
2.314553856849670410e-01
2.436541467905044556e-01
2.716346979141235352e-01
2.247413545846939087e-01
2.553634345531463623e-01
2.643471062183380127e-01
2.682320177555084229e-01
2.629081606864929199e-01
2.651038765907287598e-01
2.477833181619644165e-01
2.520640492439270020e-01
2.384857386350631714e-01
2.520326673984527588e-01
2.396759539842605591e-01
2.427880614995956421e-01
2.355004847049713135e-01
2.393960952758789062e-01
2.430691123008728027e-01
2.455568760633468628e-01
2.582231163978576660e-01
2.489922940731048584e-01
2.568325996398925781e-01
2.530727684497833252e-01
2.513453662395477295e-01
2.478339970111846924e-01
2.544551789760589600e-01
2.547340393066406250e-01
2.583853006362915039e-01
2.524076700210571289e-01
2.598209679126739502e-01
2.571311593055725098e-01
2.499041557312011719e-01
2.576508522033691406e-01
2.593785524368286133e-01
2.476194351911544800e-01
2.493723779916763306e-01
2.504088282585144043e-01
2.423936128616333008e-01
2.536883652210235596e-01
2.533865571022033691e-01
2.448368668556213379e-01
2.389996051788330078e-01
2.420005500316619873e-01
2.375493794679641724e-01
2.400226593017578125e-01
2.318500727415084839e-01
2.192345112562179565e-01
2.298688739538192749e-01
2.331123054027557373e-01
2.243918329477310181e-01
2.466924786567687988e-01
2.293621003627777100e-01
2.278086990118026733e-01
2.135583311319351196e-01
2.226295620203018188e-01
2.357944697141647339e-01
2.173628956079483032e-01
2.080648690462112427e-01
1.742928922176361084e-01
1.848125010728836060e-01
2.142356485128402710e-01
2.004956156015396118e-01
1.922511309385299683e-01
1.884298175573348999e-01
1.842024028301239014e-01
1.287907063961029053e-01
1.407525539398193359e-01
9.529390186071395874e-02
1.765683442354202271e-01
1.773837208747863770e-01
1.472053527832031250e-01
1.290313303470611572e-01
5.624591559171676636e-02
-1.359326839447021484e-01
-1.889579147100448608e-01
-1.503861695528030396e-01
-1.403738111257553101e-01
-1.454279869794845581e-01
-1.607606559991836548e-01
-1.590179055929183960e-01
-1.997102946043014526e-01
-2.007305920124053955e-01
-2.071553468704223633e-01
-2.154546380043029785e-01
-2.154231667518615723e-01
-2.150312513113021851e-01
-2.112248539924621582e-01
-2.223001122474670410e-01
-2.238171845674514771e-01
-2.260995358228683472e-01
-2.253418266773223877e-01
-2.290225625038146973e-01
-2.334556579589843750e-01
-2.228453308343887329e-01
-2.321892082691192627e-01
-2.366848886013031006e-01
-2.444773018360137939e-01
-2.446387112140655518e-01
-2.436626702547073364e-01
-2.441211789846420288e-01
-2.348194569349288940e-01
-2.369262129068374634e-01
-2.336901575326919556e-01
-2.403684407472610474e-01
-2.361863106489181519e-01
-2.449308037757873535e-01
-2.421288490295410156e-01
-2.452684044837951660e-01
-2.447335273027420044e-01
-2.465379685163497925e-01
-2.334357053041458130e-01
-2.306021302938461304e-01
-2.390424460172653198e-01
-2.236415892839431763e-01
-2.510140240192413330e-01
-2.351466268301010132e-01
-2.279090881347656250e-01
-2.395997196435928345e-01
-2.325668185949325562e-01
-2.168537676334381104e-01
-2.304136902093887329e-01
-2.291121631860733032e-01
-2.202876210212707520e-01
-2.345210015773773193e-01
-2.386831194162368774e-01
-2.540044784545898438e-01
-2.412619739770889282e-01
-2.393227964639663696e-01
-2.495037913322448730e-01
-2.461625486612319946e-01
-2.596912980079650879e-01
-2.546573877334594727e-01
-2.501555681228637695e-01
-2.597890794277191162e-01
-2.580135464668273926e-01
-2.503541409969329834e-01
-2.516457438468933105e-01
-2.521341443061828613e-01
-2.590262889862060547e-01
-2.632702291011810303e-01
-2.633458077907562256e-01
-2.408092021942138672e-01
-2.323256134986877441e-01
-2.162936627864837646e-01
-2.154750525951385498e-01
-2.175153493881225586e-01
-2.537917494773864746e-01
-1.832277625799179077e-01
-2.067282944917678833e-01
-2.648242712020874023e-01
-2.694276273250579834e-01
-2.130464762449264526e-01
-2.330528646707534790e-01
-2.184007167816162109e-01
-2.226708978414535522e-01
-2.539773583412170410e-01
-2.590890526771545410e-01
-2.227197587490081787e-01
-2.142019718885421753e-01
-2.258452624082565308e-01
-2.520266771316528320e-01
-2.283731251955032349e-01
-2.517270445823669434e-01
-2.408467084169387817e-01
-2.354831844568252563e-01
-2.489781230688095093e-01
-2.472510337829589844e-01
-2.364838570356369019e-01
-2.302551269531250000e-01
-2.464443892240524292e-01
-2.438094615936279297e-01
-2.497542500495910645e-01
-2.530460059642791748e-01
-2.546506822109222412e-01
-2.535801827907562256e-01
-2.282445728778839111e-01
-2.361916005611419678e-01
-2.311611920595169067e-01
-2.413596510887145996e-01
-2.182613164186477661e-01
-2.295340448617935181e-01
-2.570052444934844971e-01
-2.584773004055023193e-01
-2.240625768899917603e-01
-2.441544234752655029e-01
-2.562343776226043701e-01
-2.483273744583129883e-01
-2.471756786108016968e-01
-2.381913512945175171e-01
-2.475685328245162964e-01
-2.509081363677978516e-01
-2.386527210474014282e-01
-2.484010159969329834e-01
-2.469092309474945068e-01
-2.518901824951171875e-01
-2.558333873748779297e-01
-2.451336383819580078e-01
-2.545890510082244873e-01
-2.444131821393966675e-01
-2.414459884166717529e-01
-2.444245368242263794e-01
-2.357193976640701294e-01
-2.512799799442291260e-01
-2.506977617740631104e-01
-2.566243708133697510e-01
-2.519516348838806152e-01
-2.506657242774963379e-01
-2.298400849103927612e-01
-2.246673703193664551e-01
-2.296215742826461792e-01
-2.491493523120880127e-01
-2.285166680812835693e-01
-2.263330668210983276e-01
-2.505085468292236328e-01
-2.471688389778137207e-01
-2.317494601011276245e-01
-2.566857039928436279e-01
-2.599557638168334961e-01
-2.462043613195419312e-01
-2.416319102048873901e-01
-2.451890408992767334e-01
-2.563687562942504883e-01
-2.510969340801239014e-01
-2.364175915718078613e-01
-2.529063224792480469e-01
-2.596385180950164795e-01
-2.631566226482391357e-01
-2.583481967449188232e-01
-2.558734118938446045e-01
-2.567985355854034424e-01
-2.556396424770355225e-01
-2.559024095535278320e-01
-2.491531968116760254e-01
-2.568402588367462158e-01
-2.601653337478637695e-01
-2.612708806991577148e-01
-2.618607282638549805e-01
-2.610669434070587158e-01
-2.572563588619232178e-01
-2.603192031383514404e-01
-2.613222897052764893e-01
-2.634441256523132324e-01
-2.652549743652343750e-01
-2.632700502872467041e-01
-2.592236399650573730e-01
-2.539184391498565674e-01
-2.474579811096191406e-01
-2.460329234600067139e-01
-2.613457739353179932e-01
-2.667717337608337402e-01
-2.611908912658691406e-01
-2.660796344280242920e-01
-2.209361344575881958e-01
-2.674744129180908203e-01
-2.625963091850280762e-01
-2.691175937652587891e-01
-2.632586956024169922e-01
-2.629269659519195557e-01
-1.838816851377487183e-01
-2.012720704078674316e-01
-2.227903306484222412e-01
-1.846309900283813477e-01
-1.314772069454193115e-01
-2.348557114601135254e-01
-2.017660737037658691e-01
-2.313166856765747070e-01
-1.336581856012344360e-01
-2.206788361072540283e-01
-2.024796754121780396e-01
-2.486916184425354004e-01
-2.691838741302490234e-01
-2.719578742980957031e-01
-2.697477936744689941e-01
-2.668083906173706055e-01
-2.145551741123199463e-01
-2.406530231237411499e-01
-1.637056171894073486e-01
-2.300771474838256836e-01
-2.010321915149688721e-01
-2.647453248500823975e-01
-1.595696359872817993e-01
-1.996534019708633423e-01
-1.711841523647308350e-01
-1.679527908563613892e-01
-1.871229410171508789e-01
-1.654220670461654663e-01
-2.612085640430450439e-01
-2.691821753978729248e-01
-2.527568936347961426e-01
-2.075355648994445801e-01
-2.026581913232803345e-01
-1.783814281225204468e-01
-1.407067328691482544e-01
-1.850537508726119995e-01
-1.534007638692855835e-01
-1.267454773187637329e-01
-1.486176252365112305e-01
-1.717837601900100708e-01
-1.461633741855621338e-01
-1.441897451877593994e-01
-1.658690571784973145e-01
-1.745098829269409180e-01
-2.304651588201522827e-01
-2.349796146154403687e-01
-2.426384240388870239e-01
-2.393206506967544556e-01
-2.326820641756057739e-01
-2.159334868192672729e-01
-2.262656986713409424e-01
-2.142963111400604248e-01
-2.166463583707809448e-01
-2.108335047960281372e-01
-2.172324955463409424e-01
-2.255969941616058350e-01
-2.180239707231521606e-01
-2.064742445945739746e-01
-1.949603408575057983e-01
-1.916695535182952881e-01
-1.698728799819946289e-01
-1.760102808475494385e-01
-1.776781827211380005e-01
-2.233215421438217163e-01
-2.026225626468658447e-01
-2.058671563863754272e-01
-2.048915624618530273e-01
-1.944187581539154053e-01
-2.023476511240005493e-01
-1.936423480510711670e-01
-2.176636010408401489e-01
-2.197267413139343262e-01
-2.174084037542343140e-01
-2.207677364349365234e-01
-2.179614454507827759e-01
-2.103625088930130005e-01
-2.125813961029052734e-01
-2.082532644271850586e-01
-2.224444597959518433e-01
-2.249120622873306274e-01
-2.262181788682937622e-01
-2.247730791568756104e-01
-2.186509221792221069e-01
-2.169898003339767456e-01
-2.211579084396362305e-01
-2.269466966390609741e-01
-2.379719018936157227e-01
-2.361753582954406738e-01
-2.334699183702468872e-01
-2.390705049037933350e-01
-2.297919243574142456e-01
-2.307146638631820679e-01
-2.343022227287292480e-01
-2.385313212871551514e-01
-2.381822019815444946e-01
-2.304825633764266968e-01
-2.411628365516662598e-01
-2.254277169704437256e-01
-2.415019720792770386e-01
-2.434956580400466919e-01
-2.406122684478759766e-01
-2.256526350975036621e-01
-2.349365800619125366e-01
-2.361220866441726685e-01
-2.414416819810867310e-01
-2.442342787981033325e-01
-2.319675832986831665e-01
-2.403912395238876343e-01
-2.345935255289077759e-01
-2.262220382690429688e-01
-2.407632321119308472e-01
-2.308945655822753906e-01
-2.427730262279510498e-01
-2.406708747148513794e-01
-2.426453679800033569e-01
-2.429834604263305664e-01
-2.401705682277679443e-01
-2.310422658920288086e-01
-2.442312240600585938e-01
-2.414076626300811768e-01
-2.544352412223815918e-01
-2.446120083332061768e-01
-2.426301687955856323e-01
-2.466695159673690796e-01
-2.362099736928939819e-01
-2.412457466125488281e-01
-2.382264137268066406e-01
-2.527114748954772949e-01
-2.437751442193984985e-01
-2.706364989280700684e-01
-2.639058232307434082e-01
-2.392581552267074585e-01
-2.274922728538513184e-01
-2.275660037994384766e-01
-2.027786076068878174e-01
-2.633908987045288086e-01
-2.204523533582687378e-01
-2.101189643144607544e-01
-2.125393748283386230e-01
-2.361715286970138550e-01
-2.130415737628936768e-01
-2.453208863735198975e-01
-2.262092381715774536e-01
-2.713352739810943604e-01
-2.689085900783538818e-01
-2.644951343536376953e-01
-2.524639964103698730e-01
-2.468481510877609253e-01
-2.156674861907958984e-01
-2.438173592090606689e-01
-2.096305489540100098e-01
-2.424276769161224365e-01
-2.372393906116485596e-01
-2.683047950267791748e-01
-2.300674766302108765e-01
-2.197936922311782837e-01
-1.706308722496032715e-01
-2.637762129306793213e-01
-2.594685852527618408e-01
-2.599667012691497803e-01
-2.416196614503860474e-01
-2.464060634374618530e-01
-1.763253062963485718e-01
-2.467143088579177856e-01
-2.381731271743774414e-01
-1.939236074686050415e-01
-1.672508716583251953e-01
-1.987659782171249390e-01
-1.861659884452819824e-01
-2.160870432853698730e-01
-1.674018055200576782e-01
-1.786888688802719116e-01
-2.425112277269363403e-01
-2.309001833200454712e-01
-2.412237226963043213e-01
-2.177441120147705078e-01
-1.915608197450637817e-01
-1.540503650903701782e-01
-2.275779694318771362e-01
-2.616229057312011719e-01
-2.255754768848419189e-01
-1.575332134962081909e-01
-2.223931252956390381e-01
-1.940190792083740234e-01
-2.599493563175201416e-01
-2.520098984241485596e-01
-2.527262270450592041e-01
-2.325175851583480835e-01
-2.451893836259841919e-01
-2.366393953561782837e-01
-2.451057136058807373e-01
-2.389805763959884644e-01
-2.533514797687530518e-01
-2.254298180341720581e-01
-2.213840335607528687e-01
-2.271792441606521606e-01
-2.040171176195144653e-01
-1.753988564014434814e-01
-2.149515897035598755e-01
-2.212045192718505859e-01
-2.400705367326736450e-01
-2.348496764898300171e-01
-2.545684576034545898e-01
-2.517728805541992188e-01
-2.514341473579406738e-01
-2.140891849994659424e-01
-2.328120023012161255e-01
-2.337248772382736206e-01
-2.667307257652282715e-01
-2.402513623237609863e-01
-2.383449375629425049e-01
-2.372570186853408813e-01
-2.266367822885513306e-01
-2.098550200462341309e-01
-2.325517535209655762e-01
-2.389058619737625122e-01
-2.331826239824295044e-01
-2.414371073246002197e-01
-2.398997843265533447e-01
-2.415041625499725342e-01
-2.455275058746337891e-01
-2.252572625875473022e-01
-2.387011349201202393e-01
-2.446565330028533936e-01
-2.396258115768432617e-01
-2.428018003702163696e-01
-2.388533055782318115e-01
-2.465142011642456055e-01
-2.398642599582672119e-01
-2.375744879245758057e-01
-2.547706663608551025e-01
-2.509651184082031250e-01
-2.532106041908264160e-01
-2.449510395526885986e-01
-2.386649101972579956e-01
-2.482055723667144775e-01
-2.457671761512756348e-01
-2.378539443016052246e-01
-2.526204288005828857e-01
-2.478588521480560303e-01
-2.547320425510406494e-01
-2.550959587097167969e-01
-2.679414451122283936e-01
-2.526070475578308105e-01
-2.544014751911163330e-01
-2.506738603115081787e-01
-2.488966435194015503e-01
-2.293422818183898926e-01
-2.289511114358901978e-01
-2.345574945211410522e-01
-2.364828288555145264e-01
-2.350542396306991577e-01
-2.588631808757781982e-01
-2.491545528173446655e-01
-2.465158849954605103e-01
-2.170129865407943726e-01
-2.089945822954177856e-01
-2.585068643093109131e-01
-2.586778700351715088e-01
-2.152356505393981934e-01
-2.270097136497497559e-01
-2.160889357328414917e-01
-1.952837556600570679e-01
-2.418931722640991211e-01
-2.487092465162277222e-01
-1.937716156244277954e-01
-2.110595107078552246e-01
-2.211482077836990356e-01
-2.380470037460327148e-01
-2.665215134620666504e-01
-2.551525235176086426e-01
-2.630995512008666992e-01
-2.555351853370666504e-01
-2.725672423839569092e-01
-2.624617815017700195e-01
-2.322782725095748901e-01
-1.535407602787017822e-01
-2.718677520751953125e-01
-2.683490812778472900e-01
-2.684914171695709229e-01
-1.659129709005355835e-01
-2.290048748254776001e-01
-1.615016460418701172e-01
-2.163980305194854736e-01
-2.464025020599365234e-01
-2.457631081342697144e-01
-2.555483579635620117e-01
-2.595223784446716309e-01
-1.732593774795532227e-01
-2.672753334045410156e-01
-1.982232928276062012e-01
-1.112754046916961670e-01
2.184087187051773071e-01
-2.661338448524475098e-01
2.521791756153106689e-01
2.382444590330123901e-01
2.645643651485443115e-01
2.677596807479858398e-01
2.605896294116973877e-01
2.663130760192871094e-01
2.674863040447235107e-01
2.121579051017761230e-01
2.418984919786453247e-01
-2.521728277206420898e-01
2.303997129201889038e-01
-2.670211195945739746e-01
-2.648955881595611572e-01
-2.674545943737030029e-01
-9.155630320310592651e-02
-2.690900862216949463e-01
-2.688601016998291016e-01
-2.693161368370056152e-01
-2.629348337650299072e-01
2.276922613382339478e-01
2.419985383749008179e-01
-2.506208419799804688e-01
-2.280783504247665405e-01
1.935197860002517700e-01
-2.540107630193233490e-02
1.798314154148101807e-01
2.363254427909851074e-01
-2.172679603099822998e-01
-2.629737555980682373e-01
2.238409668207168579e-01
2.314957231283187866e-01
2.309210300445556641e-01
2.122923284769058228e-01
2.123086601495742798e-01
2.092587649822235107e-01
2.083471864461898804e-01
1.948340982198715210e-01
-1.032440587878227234e-01
1.671833992004394531e-01
1.837529987096786499e-01
1.307545304298400879e-01
-9.343744814395904541e-02
-1.769840270280838013e-01
-1.621314138174057007e-01
-1.781817525625228882e-01
-1.752174794673919678e-01
-1.914888918399810791e-01
-1.992520540952682495e-01
-1.775957196950912476e-01
-5.456907674670219421e-02
5.947481468319892883e-02
-1.511442810297012329e-01
3.804813325405120850e-02
5.148242041468620300e-02
6.834444403648376465e-02
4.986587911844253540e-02
7.140479236841201782e-02
6.952390819787979126e-02
6.629855930805206299e-02
6.718979775905609131e-02
6.241887435317039490e-02
2.557872980833053589e-02
-4.525557905435562134e-02
-9.516157209873199463e-02
-1.205385476350784302e-01
-1.276074349880218506e-01
-1.321309953927993774e-01
-1.439262032508850098e-01
-1.131077781319618225e-01
-1.190937757492065430e-01
-1.327261328697204590e-01
-1.354787498712539673e-01
-1.596187353134155273e-01
-1.731475889682769775e-01
-1.688178330659866333e-01
-1.489501297473907471e-01
-1.527496874332427979e-01
-1.541857719421386719e-01
-1.709734648466110229e-01
-1.603713482618331909e-01
-1.685971617698669434e-01
-1.848228424787521362e-01
-1.739505380392074585e-01
-1.699098050594329834e-01
-1.728187352418899536e-01
-1.794893890619277954e-01
-1.845987141132354736e-01
-1.808287948369979858e-01
-1.936302483081817627e-01
-1.999209374189376831e-01
-2.020374238491058350e-01
-1.998139917850494385e-01
-1.896207332611083984e-01
-1.935404539108276367e-01
-1.939138174057006836e-01
-1.969413459300994873e-01
-2.030427753925323486e-01
-2.019818127155303955e-01
-2.010095566511154175e-01
-2.047876715660095215e-01
-2.080748826265335083e-01
-2.072813063859939575e-01
-2.107638567686080933e-01
-2.137140482664108276e-01
-2.103493809700012207e-01
-2.048986256122589111e-01
-2.070665210485458374e-01
-2.204306125640869141e-01
-2.183612883090972900e-01
-2.177986502647399902e-01
-2.151632755994796753e-01
-2.175396233797073364e-01
-2.143396437168121338e-01
-2.042168378829956055e-01
-2.207295894622802734e-01
-2.195989042520523071e-01
-2.413642108440399170e-01
-2.168986946344375610e-01
-2.216838598251342773e-01
-2.113780677318572998e-01
-2.067605555057525635e-01
-2.102644294500350952e-01
-2.142361700534820557e-01
-2.214916199445724487e-01
-2.201333940029144287e-01
-2.133175283670425415e-01
-2.041320502758026123e-01
-2.152410298585891724e-01
-2.186941355466842651e-01
-2.207710444927215576e-01
-2.215490788221359253e-01
-2.215658128261566162e-01
-2.266803532838821411e-01
-2.179270684719085693e-01
-2.158906161785125732e-01
-2.181970179080963135e-01
-2.179725915193557739e-01
-2.139522582292556763e-01
-2.141622453927993774e-01
-2.185536175966262817e-01
-2.229399830102920532e-01
-2.194438278675079346e-01
-2.103559523820877075e-01
-2.202933430671691895e-01
-2.250542491674423218e-01
-2.255187928676605225e-01
-2.167008817195892334e-01
-2.281637042760848999e-01
-2.321298122406005859e-01
-2.142245173454284668e-01
-2.201926708221435547e-01
-2.252082526683807373e-01
-2.291462123394012451e-01
-2.325762510299682617e-01
-2.357578873634338379e-01
-2.530307471752166748e-01
-2.448688149452209473e-01
-2.439169138669967651e-01
-2.389767020940780640e-01
-2.406738549470901489e-01
-2.377764582633972168e-01
-2.330347597599029541e-01
-2.467602938413619995e-01
-2.352573424577713013e-01
-2.547155022621154785e-01
-2.563777863979339600e-01
-2.608645260334014893e-01
-2.557457387447357178e-01
-2.689984142780303955e-01
-2.678196728229522705e-01
-2.693320810794830322e-01
-2.735909223556518555e-01
-2.697038054466247559e-01
-2.578745186328887939e-01
-2.531947195529937744e-01
-2.239106893539428711e-01
-2.606020569801330566e-01
-2.358715832233428955e-01
-2.503135204315185547e-01
-2.456462085247039795e-01
-2.525942623615264893e-01
-2.397463321685791016e-01
-2.378887087106704712e-01
-2.251175791025161743e-01
-2.392722070217132568e-01
-2.106287777423858643e-01
-2.698292136192321777e-01
-2.354087084531784058e-01
-2.551483213901519775e-01
-1.706181168556213379e-01
-2.519856393337249756e-01
-1.892998069524765015e-01
-2.630911767482757568e-01
-2.235141098499298096e-01
-2.684876322746276855e-01
-2.627720832824707031e-01
-2.529012262821197510e-01
-2.413217425346374512e-01
-2.593879103660583496e-01
-1.582158803939819336e-01
-2.424688637256622314e-01
-2.424807846546173096e-01
-2.532926797866821289e-01
-1.973260045051574707e-01
-2.338419258594512939e-01
-2.155455499887466431e-01
-1.714902669191360474e-01
-2.282908856868743896e-01
-2.316676229238510132e-01
-2.474699765443801880e-01
-2.520615160465240479e-01
-2.528451681137084961e-01
-2.449930608272552490e-01
-2.519811391830444336e-01
-2.572424113750457764e-01
-2.470138370990753174e-01
-2.256866991519927979e-01
-2.503049969673156738e-01
1.402245461940765381e-01
-2.642688453197479248e-01
1.895576715469360352e-01
2.142079919576644897e-01
2.067158669233322144e-01
2.123299688100814819e-01
1.829831004142761230e-01
2.238787710666656494e-01
2.062911689281463623e-01
1.721766889095306396e-01
1.503643989562988281e-01
1.863681524991989136e-01
-1.636492609977722168e-01
2.329903692007064819e-01
2.361320257186889648e-01
-2.506812214851379395e-01
-2.431435883045196533e-01
-2.010583579540252686e-01
-1.231750100851058960e-01
-1.805035322904586792e-01
-1.712963283061981201e-01
-2.030215114355087280e-01
-1.695920526981353760e-01
2.119691669940948486e-01
2.290613800287246704e-01
2.295386046171188354e-01
-2.587024569511413574e-01
2.076667547225952148e-01
2.301253676414489746e-01
2.091282904148101807e-01
2.312736511230468750e-01
2.468704432249069214e-01
-2.224858403205871582e-01
2.128119766712188721e-01
2.136499136686325073e-01
-2.509625256061553955e-01
-2.326670885086059570e-01
-2.372711449861526489e-01
-2.062303274869918823e-01
-2.324721515178680420e-01
-1.885556280612945557e-01
-2.000482678413391113e-01
-2.445091009140014648e-01
-2.457480728626251221e-01
-1.229205429553985596e-01
1.517642289400100708e-01
-1.225270032882690430e-01
-1.969561278820037842e-01
-1.130591109395027161e-01
5.431652814149856567e-02
-2.105549909174442291e-02
2.075123041868209839e-02
-1.289276629686355591e-01
-1.540708690881729126e-01
-5.680976063013076782e-02
4.553240910172462463e-02
-8.431808091700077057e-03
-1.018828451633453369e-01
-2.063399553298950195e-01
-3.311279043555259705e-02
-7.308682799339294434e-02
-1.121411919593811035e-01
-2.195127010345458984e-01
-2.109716236591339111e-01
-1.860211342573165894e-01
-2.232289016246795654e-01
-2.026989310979843140e-01
-2.026934623718261719e-01
-1.921875029802322388e-01
-2.082368880510330200e-01
-1.874886602163314819e-01
-2.168086469173431396e-01
-1.930949240922927856e-01
-2.024880945682525635e-01
-2.140618264675140381e-01
-1.783639043569564819e-01
-9.678779169917106628e-03
2.359889075160026550e-02
1.945579610764980316e-02
3.754804655909538269e-02
6.213843356817960739e-03
5.928120017051696777e-02
5.337810143828392029e-02
4.216365143656730652e-02
-2.444132976233959198e-02
5.716950073838233948e-02
5.041202530264854431e-03
-8.809093385934829712e-03
-2.167606949806213379e-01
-2.235459238290786743e-01
-2.295369505882263184e-01
-2.360663563013076782e-01
-2.328031361103057861e-01
-1.952024698257446289e-01
-2.138273864984512329e-01
-1.762796342372894287e-01
-2.193840593099594116e-01
-4.601152241230010986e-02
-1.896412074565887451e-01
-1.643951982259750366e-01
-1.680042743682861328e-01
-9.569760411977767944e-02
-1.128669306635856628e-01
-1.207871437072753906e-01
-1.519786417484283447e-01
-1.813300997018814087e-01
-1.811006665229797363e-01
-1.895520687103271484e-01
-2.040261328220367432e-01
-1.682686805725097656e-01
-1.936096847057342529e-01
-1.881808191537857056e-01
-1.822074651718139648e-01
-1.758962124586105347e-01
-1.816988289356231689e-01
-1.786976903676986694e-01
-1.706979870796203613e-01
-1.841662228107452393e-01
-1.961927413940429688e-01
-2.011584341526031494e-01
-2.074733227491378784e-01
-2.037563472986221313e-01
-2.135190218687057495e-01
-2.036752104759216309e-01
-1.911697536706924438e-01
-1.997975260019302368e-01
-1.999240517616271973e-01
-1.983067840337753296e-01
-2.048852145671844482e-01
-2.129252701997756958e-01
-2.187758386135101318e-01
-1.988054811954498291e-01
-2.027995437383651733e-01
-2.018165290355682373e-01
-1.986521929502487183e-01
-1.948467940092086792e-01
-2.016257494688034058e-01
-2.082597762346267700e-01
-2.177864611148834229e-01
-1.945246607065200806e-01
-1.933773010969161987e-01
-2.061539143323898315e-01
-2.044097781181335449e-01
-2.137173712253570557e-01
-2.097185403108596802e-01
-2.127908468246459961e-01
-2.178177237510681152e-01
-2.037477940320968628e-01
-2.040889412164688110e-01
-2.083050906658172607e-01
-2.134836316108703613e-01
-2.139810025691986084e-01
-2.102121412754058838e-01
-2.130961120128631592e-01
-2.226042449474334717e-01
-2.176531553268432617e-01
-2.191901952028274536e-01
-2.190496623516082764e-01
-2.181298732757568359e-01
-2.256648540496826172e-01
-2.187566608190536499e-01
-2.199993133544921875e-01
-2.257612645626068115e-01
-2.211323082447052002e-01
-2.255911976099014282e-01
-2.192058265209197998e-01
-2.204841077327728271e-01
-2.246184498071670532e-01
-2.249242216348648071e-01
-2.268267422914505005e-01
-2.277805656194686890e-01
-2.321771383285522461e-01
-2.283522337675094604e-01
-2.282935082912445068e-01
-2.275145798921585083e-01
-2.366181612014770508e-01
-2.345693409442901611e-01
-2.416205406188964844e-01
-2.368024885654449463e-01
-2.376132160425186157e-01
-2.505297958850860596e-01
-2.433639764785766602e-01
-2.557356953620910645e-01
-2.475527673959732056e-01
-2.609064877033233643e-01
-2.681885957717895508e-01
-2.676815092563629150e-01
-2.633691430091857910e-01
-2.595458924770355225e-01
-2.590556740760803223e-01
-2.444083690643310547e-01
-2.579943537712097168e-01
-2.592286467552185059e-01
-1.947855502367019653e-01
-2.717470824718475342e-01
-2.717144191265106201e-01
-2.567696571350097656e-01
-2.656106054782867432e-01
-2.685127854347229004e-01
-2.665582597255706787e-01
-2.691754996776580811e-01
-2.634395658969879150e-01
-2.679902613162994385e-01
-2.582223117351531982e-01
-2.671128511428833008e-01
-2.688291668891906738e-01
-2.584739625453948975e-01
-2.666163146495819092e-01
1.525341868400573730e-01
-2.432728111743927002e-01
-1.760626286268234253e-01
1.712164878845214844e-01
2.200610339641571045e-01
1.338508427143096924e-01
2.306919693946838379e-01
1.741312593221664429e-01
2.409358322620391846e-01
2.302281856536865234e-01
6.713198870420455933e-02
-2.409726828336715698e-01
-2.470940351486206055e-01
-2.330162525177001953e-01
-2.513477802276611328e-01
-2.556506395339965820e-01
-1.263689398765563965e-01
-2.435670942068099976e-01
-2.439805567264556885e-01
-4.257790744304656982e-02
-2.509902715682983398e-01
-2.477063983678817749e-01
-2.394146025180816650e-01
1.818927377462387085e-01
1.169948279857635498e-01
2.260451465845108032e-01
2.370242029428482056e-01
2.383395284414291382e-01
2.092855274677276611e-01
2.150231301784515381e-01
2.188885957002639771e-01
8.172644674777984619e-02
2.329731732606887817e-01
2.106634676456451416e-01
-1.938009113073348999e-01
-2.298077344894409180e-01
-2.398812472820281982e-01
-2.273299098014831543e-01
-2.240067273378372192e-01
-2.192757129669189453e-01
-2.105911821126937866e-01
-2.086317241191864014e-01
2.879265137016773224e-02
-2.100208997726440430e-01
-2.111448198556900024e-01
-2.125684320926666260e-01
-1.926360875368118286e-01
-2.175531387329101562e-01
2.097959965467453003e-01
-1.991023123264312744e-01
2.148098200559616089e-01
2.111760973930358887e-01
2.171659022569656372e-01
2.147249132394790649e-01
2.107564657926559448e-01
2.035405039787292480e-01
2.054404169321060181e-01
2.022643089294433594e-01
1.960548311471939087e-01
1.964684724807739258e-01
1.964189261198043823e-01
1.865907460451126099e-01
1.272571384906768799e-01
-1.940448433160781860e-01
1.802325099706649780e-01
1.029641851782798767e-01
-2.946697175502777100e-02
-1.123596131801605225e-01
1.778677105903625488e-01
1.409765984863042831e-02
-3.567407652735710144e-02
-1.130953952670097351e-01
-6.779595464468002319e-02
1.199254542589187622e-01
1.168590933084487915e-01
1.259546875953674316e-01
1.169005855917930603e-01
8.434501290321350098e-02
6.863380968570709229e-02
7.053697109222412109e-02
7.037067413330078125e-02
4.618130624294281006e-02
1.949816942214965820e-02
5.718590691685676575e-02
8.119194209575653076e-02
6.020466610789299011e-02
4.694082215428352356e-02
9.746105223894119263e-02
8.100286126136779785e-02
5.706930160522460938e-02
1.305373311042785645e-01
1.283247172832489014e-01
1.288216710090637207e-01
1.239868327975273132e-01
7.092913240194320679e-02
1.295689642429351807e-01
9.587087482213973999e-02
1.304536461830139160e-01
1.141048446297645569e-01
1.102290600538253784e-01
9.650173783302307129e-02
6.844915449619293213e-02
5.906268954277038574e-02
2.172279870137572289e-03
1.250826120376586914e-01
1.002398058772087097e-01
1.072531118988990784e-01
6.782089918851852417e-02
1.035940051078796387e-01
1.319701522588729858e-01
1.103564351797103882e-01
9.631423652172088623e-02
1.174655649811029434e-02
4.563547298312187195e-02
1.906498894095420837e-02
3.112372756004333496e-02
1.057630479335784912e-01
1.128301844000816345e-01
1.004589349031448364e-01
6.258757412433624268e-02
-7.075040601193904877e-03
1.052169315516948700e-02
4.816285893321037292e-02
3.599542751908302307e-02
4.876701533794403076e-02
6.255172193050384521e-02
3.739460930228233337e-02
1.543425582349300385e-02
-6.538434419780969620e-03
4.554345738142728806e-03
2.079870179295539856e-02
9.735039435327053070e-03
7.137284614145755768e-03
1.667463593184947968e-02
1.476705260574817657e-02
4.890664480626583099e-03
6.570760160684585571e-04
-9.563353843986988068e-03
6.455973256379365921e-03
-2.650652313604950905e-03
-1.055268384516239166e-02
-7.659489288926124573e-03
-1.186582446098327637e-02
-1.431936491280794144e-02
-1.303046382963657379e-02
-1.281373202800750732e-02
-1.571580208837985992e-02
-1.370361819863319397e-02
-1.777307875454425812e-02
-1.261182781308889389e-02
-2.123767696321010590e-02
-2.032467350363731384e-02
-2.496639266610145569e-02
-2.486182376742362976e-02
-2.922946400940418243e-02
-3.135918453335762024e-02
-3.666562959551811218e-02
-2.980898134410381317e-02
-2.434625104069709778e-02
-3.535298258066177368e-02
-2.832307480275630951e-02
-2.637157961726188660e-02
-2.251051552593708038e-02
-4.679450020194053650e-02
-4.221174493432044983e-02
-1.863356307148933411e-02
-3.718744590878486633e-02
-4.619290679693222046e-02
-5.734006687998771667e-02
-4.767597094178199768e-02
-4.566493257880210876e-02
-2.871743775904178619e-02
-3.272891044616699219e-02
-1.916852220892906189e-02
-3.081036731600761414e-02
-3.965326026082038879e-02
-5.425220355391502380e-02
-4.040566086769104004e-02
-5.424655601382255554e-02
-6.163870543241500854e-02
-6.504312157630920410e-02
-7.370738685131072998e-02
-4.875963181257247925e-02
-6.224117055535316467e-02
-6.811372935771942139e-02
-5.746620893478393555e-02
-7.483522593975067139e-02
-8.399751037359237671e-02
-1.170008704066276550e-01
-9.831879287958145142e-02
-1.387577354907989502e-01
-1.656546145677566528e-01
-1.567998379468917847e-01
-1.740271747112274170e-01
-1.739137917757034302e-01
-2.268504202365875244e-01
-1.979699730873107910e-01
-2.243027389049530029e-01
-1.937329471111297607e-01
-3.914745897054672241e-02
-1.313586384057998657e-01
-1.392347514629364014e-01
1.508941948413848877e-01
2.194075137376785278e-01
2.089569121599197388e-01
2.281851172447204590e-01
2.269301265478134155e-01
2.139500975608825684e-01
1.928476691246032715e-01
2.262370884418487549e-01
-2.554656565189361572e-01
-2.613183856010437012e-01
-2.537443935871124268e-01
-2.533137202262878418e-01
-2.604423165321350098e-01
-1.667622774839401245e-01
-2.554353773593902588e-01
-2.350270301103591919e-01
-2.444288879632949829e-01
1.772148311138153076e-01
1.925906985998153687e-01
2.400820702314376831e-01
2.343612611293792725e-01
2.483499944210052490e-01
1.981926858425140381e-01
2.283169180154800415e-01
2.475785166025161743e-01
2.210375964641571045e-01
2.413740605115890503e-01
2.521927356719970703e-01
2.068141996860504150e-01
2.221544086933135986e-01
2.173217982053756714e-01
-2.050690650939941406e-01
-1.368579864501953125e-01
1.992515325546264648e-01
2.107361406087875366e-01
1.876754909753799438e-01
-1.910222470760345459e-01
-1.441868245601654053e-01
1.615997254848480225e-01
-1.800662726163864136e-01
-1.797986775636672974e-01
-1.989807933568954468e-01
-2.358642518520355225e-01
-2.156442254781723022e-01
-1.964588910341262817e-01
-2.314745038747787476e-01
-2.297298312187194824e-01
-2.124699503183364868e-01
-2.026494890451431274e-01
-2.206406742334365845e-01
-2.442601323127746582e-01
2.464838325977325439e-02
1.262983828783035278e-01
-2.212069183588027954e-01
-2.214246094226837158e-01
2.151581496000289917e-01
2.227082848548889160e-01
6.406367570161819458e-02
1.614305824041366577e-01
1.411000937223434448e-01
1.186658069491386414e-01
2.300517857074737549e-01
2.058371454477310181e-01
1.928378194570541382e-01
1.057457774877548218e-01
2.197167873382568359e-01
2.020104229450225830e-01
1.924953311681747437e-01
1.257375776767730713e-01
1.451244205236434937e-01
-1.767763309180736542e-02
1.606645882129669189e-01
1.440278142690658569e-01
-1.889095902442932129e-01
-1.727633476257324219e-01
-1.974386423826217651e-01
-1.704803705215454102e-01
-1.999133229255676270e-01
-1.620238125324249268e-01
-1.973485946655273438e-01
-1.983468234539031982e-01
-2.267130315303802490e-01
-2.362136095762252808e-01
9.365121275186538696e-02
-2.254358232021331787e-01
-2.410102635622024536e-01
4.275828599929809570e-02
-7.019589841365814209e-02
-9.837175719439983368e-03
-1.734052747488021851e-01
-2.437475323677062988e-01
-2.423636019229888916e-01
-2.404008209705352783e-01
-2.497406601905822754e-01
-2.513312697410583496e-01
-2.500271499156951904e-01
-1.428163796663284302e-01
-2.432657778263092041e-01
-2.425456047058105469e-01
-2.447142153978347778e-01
-2.224175631999969482e-01
-2.314352840185165405e-01
2.037764042615890503e-01
1.890141516923904419e-01
2.334063202142715454e-01
2.279345393180847168e-01
2.381005734205245972e-01
2.444252073764801025e-01
2.457697540521621704e-01
2.446471899747848511e-01
2.491219490766525269e-01
2.491060495376586914e-01
2.431941032409667969e-01
2.313620001077651978e-01
-2.196750044822692871e-01
-2.228046506643295288e-01
-2.562955021858215332e-01
-2.569524347782135010e-01
-2.575539350509643555e-01
-2.280418276786804199e-01
-2.372585833072662354e-01
-2.230910360813140869e-01
2.157930433750152588e-01
-1.242109686136245728e-01
-1.789957284927368164e-01
-2.490153610706329346e-01
1.424528956413269043e-01
-1.375760585069656372e-01
1.032674238085746765e-01
1.947897672653198242e-01
2.017424553632736206e-01
1.477026492357254028e-01
1.865055263042449951e-01
-1.144013106822967529e-01
-1.390762925148010254e-01
-9.203403443098068237e-02
2.431240398436784744e-03
-5.546966195106506348e-02
-1.353171318769454956e-01
-1.135415434837341309e-01
-1.054652109742164612e-01
-1.539873033761978149e-01
-1.325042396783828735e-01
-9.125414490699768066e-02
-1.266756951808929443e-01
-1.131347715854644775e-01
-1.168040931224822998e-01
-1.130685508251190186e-01
-8.377287536859512329e-02
-1.125110164284706116e-01
-1.099837124347686768e-01
-1.241189911961555481e-01
-1.494334936141967773e-01
-1.434194594621658325e-01
-1.465955674648284912e-01
-1.405614018440246582e-01
-1.455205231904983521e-01
-1.517147719860076904e-01
-1.606078743934631348e-01
-1.694699525833129883e-01
-1.735391914844512939e-01
-1.590360403060913086e-01
-1.571473926305770874e-01
-1.697942465543746948e-01
-1.616091430187225342e-01
-1.799401640892028809e-01
-1.817172020673751831e-01
-1.695619076490402222e-01
-1.957913041114807129e-01
-1.720743626356124878e-01
-1.756687313318252563e-01
-1.806746870279312134e-01
-1.797286272048950195e-01
-1.933884322643280029e-01
-1.883030533790588379e-01
-1.980016082525253296e-01
-1.905407160520553589e-01
-1.930879652500152588e-01
-1.884522885084152222e-01
-1.927165389060974121e-01
-1.942504942417144775e-01
-1.989412307739257812e-01
-2.012891769409179688e-01
-2.056730687618255615e-01
-2.018032222986221313e-01
-2.062875479459762573e-01
-2.011497169733047485e-01
-1.979472041130065918e-01
-2.036240547895431519e-01
-1.987471878528594971e-01
-2.043617516756057739e-01
-2.218771427869796753e-01
-2.026179581880569458e-01
-2.157286852598190308e-01
-2.276767939329147339e-01
-2.086708098649978638e-01
-2.238529026508331299e-01
-2.234942317008972168e-01
-2.329709976911544800e-01
-2.237589806318283081e-01
-2.349170148372650146e-01
-2.389225363731384277e-01
-2.363341450691223145e-01
-2.503420710563659668e-01
-2.434393465518951416e-01
-2.571026086807250977e-01
-2.562133669853210449e-01
-2.630060017108917236e-01
-2.638109028339385986e-01
-2.571771740913391113e-01
-2.599945664405822754e-01
-2.432954162359237671e-01
-2.380054444074630737e-01
-2.629259824752807617e-01
-2.410591989755630493e-01
-2.628146409988403320e-01
-2.726966142654418945e-01
-2.716552317142486572e-01
-2.694489359855651855e-01
-2.635064423084259033e-01
-2.601217031478881836e-01
-2.717486917972564697e-01
-2.706124782562255859e-01
-2.728451788425445557e-01
-2.543136179447174072e-01
-2.726713120937347412e-01
-2.676701843738555908e-01
-2.717479169368743896e-01
-2.734818458557128906e-01
-2.602651715278625488e-01
2.668246030807495117e-01
-2.658385038375854492e-01
2.479160279035568237e-01
2.667968869209289551e-01
2.693391442298889160e-01
2.682753503322601318e-01
2.708210051059722900e-01
2.670959234237670898e-01
2.662055790424346924e-01
2.411005049943923950e-01
-1.620637439191341400e-02
-2.261372804641723633e-01
-2.432301938533782959e-01
-2.581202387809753418e-01
-2.410083860158920288e-01
-2.394135147333145142e-01
-1.799282878637313843e-01
-1.832956820726394653e-01
2.527289390563964844e-01
-1.680956780910491943e-01
-1.967132687568664551e-01
2.098100185394287109e-01
2.239118963479995728e-01
1.779834330081939697e-01
1.334742754697799683e-01
1.442430168390274048e-01
1.300129294395446777e-01
1.237436830997467041e-01
1.083861142396926880e-01
1.111707836389541626e-01
1.025228500366210938e-01
1.209167391061782837e-01
-8.882300555706024170e-02
5.389444902539253235e-02
-9.996084123849868774e-02
-9.244092553853988647e-02
-7.157877832651138306e-02
-6.968399137258529663e-02
-6.303182989358901978e-02
-4.794539883732795715e-02
-5.696841329336166382e-02
-4.124025255441665649e-02
-3.756700083613395691e-02
-3.258022293448448181e-02
5.670772865414619446e-02
4.856936633586883545e-02
4.411320388317108154e-02
4.026154801249504089e-02
3.382688760757446289e-02
3.759830445051193237e-02
2.986926957964897156e-02
2.453253977000713348e-02
2.431543916463851929e-02
2.590793929994106293e-02
2.408494055271148682e-02
2.728026174008846283e-02
1.625433750450611115e-02
3.278317674994468689e-02
2.221459522843360901e-02
5.334699898958206177e-02
5.549781396985054016e-02
3.967363387346267700e-02
6.580209732055664062e-02
7.750985026359558105e-02
6.091235205531120300e-02
5.573296919465065002e-02
-3.620406612753868103e-02
-9.744944050908088684e-03
-6.257493048906326294e-02
-2.247078903019428253e-02
-7.504320889711380005e-02
-6.112394481897354126e-02
-9.078487753868103027e-02
-8.913378417491912842e-02
-1.013888120651245117e-01
-9.812445193529129028e-02
-8.028841763734817505e-02
-3.820864856243133545e-02
-6.480386108160018921e-02
-7.999771833419799805e-02
-1.115234941244125366e-01
-1.267831474542617798e-01
-4.513100534677505493e-02
-1.124105378985404968e-01
1.244397535920143127e-01
8.906317502260208130e-02
8.607846498489379883e-02
7.027481496334075928e-02
-1.443532407283782959e-01
-1.074452698230743408e-01
-4.706897214055061340e-02
6.875965744256973267e-02
5.315763875842094421e-03
4.513718932867050171e-02
-8.998999744653701782e-02
-1.068359240889549255e-01
-1.282196342945098877e-01
-1.325377672910690308e-01
-8.307917416095733643e-02
-9.072610735893249512e-02
-8.768148720264434814e-02
-1.092815995216369629e-01
-1.241060197353363037e-01
-1.151737347245216370e-01
-1.371193379163742065e-01
-1.246503740549087524e-01
-1.086497604846954346e-01
-9.628797322511672974e-02
-1.072356924414634705e-01
-8.356036245822906494e-02
-7.524666190147399902e-02
-6.088060885667800903e-02
-9.849782288074493408e-02
-1.119748800992965698e-01
-1.028574630618095398e-01
-9.140775352716445923e-02
-6.568650156259536743e-02
-5.731799826025962830e-02
-5.660730972886085510e-02
-5.979345366358757019e-02
-8.865924179553985596e-02
-8.525811880826950073e-02
-9.582382440567016602e-02
-9.936998784542083740e-02
-7.626508176326751709e-02
-6.675489246845245361e-02
-7.492228597402572632e-02
-8.426687121391296387e-02
-8.742896467447280884e-02
-9.780149161815643311e-02
-1.121209710836410522e-01
-1.062396690249443054e-01
-8.814498037099838257e-02
-8.766414225101470947e-02
-1.103734374046325684e-01
-1.244845464825630188e-01
-1.491760015487670898e-01
-1.632151603698730469e-01
-1.835891008377075195e-01
-1.532705873250961304e-01
-1.291505694389343262e-01
-1.469000428915023804e-01
-1.722539663314819336e-01
-1.940481066703796387e-01
-1.936044991016387939e-01
-2.187955528497695923e-01
-1.939990669488906860e-01
-2.032128125429153442e-01
-1.992997974157333374e-01
-2.053467929363250732e-01
-2.198841422796249390e-01
-2.148373574018478394e-01
-2.376435697078704834e-01
-1.872158497571945190e-01
-2.137046754360198975e-01
-2.216318249702453613e-01
-2.116011232137680054e-01
-2.011004239320755005e-01
-1.771803647279739380e-01
-1.863077282905578613e-01
-1.847365498542785645e-01
-1.953764855861663818e-01
-2.059089243412017822e-01
-2.145263999700546265e-01
-2.284002304077148438e-01
-1.748296916484832764e-01
-1.933816522359848022e-01
-2.276035845279693604e-01
-2.235601097345352173e-01
-2.146347761154174805e-01
-1.949480623006820679e-01
-1.962511539459228516e-01
-1.245929002761840820e-01
-1.939867585897445679e-01
-6.213712692260742188e-02
-2.078617662191390991e-01
-2.342434674501419067e-01
2.493485994637012482e-02
8.568464964628219604e-02
-2.431423664093017578e-01
-2.432966381311416626e-01
1.196845248341560364e-01
5.922739952802658081e-02
1.687216162681579590e-01
1.761207878589630127e-01
1.346206665039062500e-01
-7.674827426671981812e-02
2.163578122854232788e-01
2.177160084247589111e-01
2.146748006343841553e-01
2.196719795465469360e-01
1.893966346979141235e-01
-2.330284267663955688e-01
1.744050532579421997e-01
-2.452948838472366333e-01
-2.429442107677459717e-01
-2.441010922193527222e-01
-2.439611852169036865e-01
-2.439797073602676392e-01
-2.372238934040069580e-01
-2.467297762632369995e-01
-2.534690499305725098e-01
-2.365561127662658691e-01
-2.332767844200134277e-01
2.195908725261688232e-01
2.401117682456970215e-01
2.350349873304367065e-01
2.376076281070709229e-01
2.130124270915985107e-01
2.299566566944122314e-01
2.329808920621871948e-01
2.146535962820053101e-01
2.155321091413497925e-01
2.296026945114135742e-01
2.273616045713424683e-01
1.903166621923446655e-01
-2.292864173650741577e-01
-2.332792580127716064e-01
-2.112780809402465820e-01
-3.390396386384963989e-02
-1.343280375003814697e-01
1.368649303913116455e-01
1.939799934625625610e-01
8.241829276084899902e-02
-2.196379452943801880e-01
9.360758960247039795e-02
1.003651246428489685e-01
-1.072634831070899963e-01
-1.193297505378723145e-01
3.291748464107513428e-02
4.038723930716514587e-02
-2.298978157341480255e-03
-2.266639918088912964e-01
-1.390932500362396240e-01
-9.529990702867507935e-02
-4.799152910709381104e-02
-1.488599777221679688e-01
-9.302030503749847412e-02
-7.888001948595046997e-02
-1.173299700021743774e-01
-9.541384130716323853e-02
-1.253803819417953491e-01
-4.889716580510139465e-02
-1.271064728498458862e-01
-4.093964770436286926e-02
-6.318467110395431519e-02
-4.702099412679672241e-02
-4.880177602171897888e-02
-7.834472507238388062e-02
-9.787631034851074219e-02
-1.331768631935119629e-01
-1.123085916042327881e-01
-1.138711720705032349e-01
-1.199061423540115356e-01
-1.479433923959732056e-01
-1.604572981595993042e-01
-1.810110807418823242e-01
-1.533308178186416626e-01
-1.422996222972869873e-01
-1.609418094158172607e-01
-1.671046614646911621e-01
-1.663033664226531982e-01
-1.817097514867782593e-01
-1.807405799627304077e-01
-1.863340437412261963e-01
-1.818128675222396851e-01
-1.798128485679626465e-01
-1.871820390224456787e-01
-1.879006773233413696e-01
-1.826217770576477051e-01
-1.912192702293395996e-01
-1.848182380199432373e-01
-1.957235485315322876e-01
-1.951142996549606323e-01
-2.182162255048751831e-01
-2.027246505022048950e-01
-1.972186267375946045e-01
-1.954147815704345703e-01
-1.936717331409454346e-01
-2.003541290760040283e-01
-1.994375884532928467e-01
-2.107866555452346802e-01
-2.109453380107879639e-01
-2.130318880081176758e-01
-1.908716708421707153e-01
-2.025284916162490845e-01
-1.993162631988525391e-01
-2.069178521633148193e-01
-2.111337035894393921e-01
-2.141158878803253174e-01
-2.150361239910125732e-01
-2.067949473857879639e-01
-2.061406970024108887e-01
-2.075786441564559937e-01
-2.107836157083511353e-01
-2.115312814712524414e-01
-2.126974761486053467e-01
-2.115654349327087402e-01
-2.091663032770156860e-01
-2.051993757486343384e-01
-2.053454071283340454e-01
-2.080367505550384521e-01
-2.112685441970825195e-01
-2.051557749509811401e-01
-2.065825760364532471e-01
-2.078096568584442139e-01
-2.052304148674011230e-01
-2.056909501552581787e-01
-2.013504952192306519e-01
-2.097402811050415039e-01
-2.125527113676071167e-01
-2.053265124559402466e-01
-2.030063867568969727e-01
-2.088695019483566284e-01
-2.164067924022674561e-01
-2.102132886648178101e-01
-2.126207202672958374e-01
-2.105620801448822021e-01
-2.142841219902038574e-01
-2.100051790475845337e-01
-2.074065208435058594e-01
-2.137700468301773071e-01
-2.242047637701034546e-01
-2.215540260076522827e-01
-2.172377407550811768e-01
-2.210291177034378052e-01
-2.203237861394882202e-01
-2.255402654409408569e-01
-2.226171344518661499e-01
-2.287417054176330566e-01
-2.362911105155944824e-01
-2.267077416181564331e-01
-2.297658324241638184e-01
-2.255061566829681396e-01
-2.276357114315032959e-01
-2.355885356664657593e-01
-2.314694970846176147e-01
-2.395204901695251465e-01
-2.411056905984878540e-01
-2.367016524076461792e-01
-2.449667155742645264e-01
-2.383843958377838135e-01
-2.437199205160140991e-01
-2.410193979740142822e-01
-2.388343662023544312e-01
-2.402530014514923096e-01
-2.428470700979232788e-01
-2.456870526075363159e-01
-2.459881156682968140e-01
-2.522607445716857910e-01
-2.561750113964080811e-01
-2.497887313365936279e-01
-2.479189038276672363e-01
-2.607429027557373047e-01
-2.592227458953857422e-01
-2.424424290657043457e-01
-2.591646015644073486e-01
-2.473109066486358643e-01
-2.533075511455535889e-01
-2.692515254020690918e-01
-2.631632983684539795e-01
-2.683611810207366943e-01
-2.671779394149780273e-01
-2.558141648769378662e-01
-2.649767398834228516e-01
-2.651795446872711182e-01
-2.694942951202392578e-01
-2.697089314460754395e-01
-2.461906969547271729e-01
-2.664549052715301514e-01
-2.633442580699920654e-01
-2.657230496406555176e-01
-2.654839456081390381e-01
-2.635823488235473633e-01
-2.595863938331604004e-01
-2.645473182201385498e-01
-2.605244517326354980e-01
-2.642070651054382324e-01
-1.644104570150375366e-01
-2.645069062709808350e-01
-2.633456885814666748e-01
-2.621990740299224854e-01
-2.490996420383453369e-01
-2.658782005310058594e-01
2.213696837425231934e-01
-2.642820775508880615e-01
2.358410805463790894e-01
2.471300214529037476e-01
2.533360123634338379e-01
2.570925951004028320e-01
2.478046268224716187e-01
2.564624547958374023e-01
2.495345473289489746e-01
-1.340042799711227417e-01
-2.164931297302246094e-01
-1.586443185806274414e-01
-2.117239087820053101e-01
-5.181624367833137512e-02
-1.702954471111297607e-01
-2.561314702033996582e-01
-2.317929267883300781e-01
1.785206943750381470e-01
2.386881262063980103e-01
1.981129050254821777e-01
-2.095769047737121582e-01
2.048111110925674438e-01
1.950331926345825195e-01
1.927495449781417847e-01
1.772797405719757080e-01
1.508631408214569092e-01
-1.236790046095848083e-01
1.550968587398529053e-01
1.443679928779602051e-01
1.395951062440872192e-01
-2.481432557106018066e-01
7.324481010437011719e-02
-1.965210437774658203e-01
-2.037595361471176147e-01
-1.975125372409820557e-01
-1.640197783708572388e-01
-1.615228503942489624e-01
-1.495464295148849487e-01
-1.621649414300918579e-01
-1.512351334095001221e-01
-1.475725919008255005e-01
-1.576206535100936890e-01
-1.332449167966842651e-01
-1.319750100374221802e-01
8.522424101829528809e-02
-1.112423688173294067e-01
8.529958873987197876e-02
1.099851876497268677e-01
9.699614346027374268e-02
1.068084165453910828e-01
1.063300669193267822e-01
1.019217669963836670e-01
1.030708253383636475e-01
1.032126769423484802e-01
1.033964455127716064e-01
1.002418175339698792e-01
9.469287097454071045e-02
9.693060070276260376e-02
5.514469370245933533e-02
1.190235838294029236e-01
1.169296056032180786e-01
8.467365801334381104e-02
8.535691350698471069e-02
9.460752457380294800e-02
-8.963043987751007080e-02
5.315971374511718750e-02
1.736621558666229248e-02
-2.241488546133041382e-01
-2.096921205520629883e-01
-2.006394863128662109e-01
-2.025360465049743652e-01
-1.889494955539703369e-01
-1.079042926430702209e-01
-1.304585635662078857e-01
-1.936572790145874023e-01
1.331888735294342041e-01
1.087871491909027100e-01
