-3.528232276439666748e-01
-3.775850534439086914e-01
-3.821534812450408936e-01
-3.781769871711730957e-01
-3.400274515151977539e-01
-3.513672649860382080e-01
-3.565497398376464844e-01
-3.345542252063751221e-01
-3.606388270854949951e-01
-3.389009237289428711e-01
-2.371940761804580688e-01
3.176206946372985840e-01
3.199059367179870605e-01
3.684604167938232422e-01
3.756859004497528076e-01
3.657251894474029541e-01
3.785979151725769043e-01
3.804815411567687988e-01
3.846743404865264893e-01
3.827728331089019775e-01
3.758365809917449951e-01
3.786878883838653564e-01
3.816278278827667236e-01
3.822034597396850586e-01
3.854270279407501221e-01
3.801310658454895020e-01
3.796044588088989258e-01
3.738102018833160400e-01
3.820869326591491699e-01
3.716713786125183105e-01
3.736877441406250000e-01
3.642972111701965332e-01
3.640469610691070557e-01
3.407095074653625488e-01
3.479722142219543457e-01
3.226279616355895996e-01
2.809082865715026855e-01
1.853353977203369141e-01
9.091433882713317871e-02
-7.709883153438568115e-02
-1.005952730774879456e-01
-2.691886723041534424e-01
-3.097534775733947754e-01
-2.868775725364685059e-01
-3.063993453979492188e-01
-3.299118876457214355e-01
-3.459069430828094482e-01
-3.632518053054809570e-01
-3.603042662143707275e-01
-3.702094256877899170e-01
-3.713399171829223633e-01
-3.786622881889343262e-01
-3.733737170696258545e-01
-3.725969195365905762e-01
-3.893664479255676270e-01
-3.839645087718963623e-01
-3.891634047031402588e-01
-3.877993226051330566e-01
-3.878042697906494141e-01
-3.961638510227203369e-01
-3.945833444595336914e-01
-3.953757286071777344e-01
-3.945082128047943115e-01
-3.966184854507446289e-01
-3.800452649593353271e-01
-3.928151726722717285e-01
-3.783213496208190918e-01
-3.930011391639709473e-01
-3.904450535774230957e-01
-3.879032135009765625e-01
-3.902541399002075195e-01
-3.955843150615692139e-01
-2.927258014678955078e-01
-3.960435390472412109e-01
-3.682338297367095947e-01
-3.799014687538146973e-01
-2.188311368227005005e-01
-3.626821637153625488e-01
-1.326494812965393066e-01
-2.038920521736145020e-01
-1.656429767608642578e-01
-1.377024650573730469e-01
-1.581034511327743530e-01
-1.941541433334350586e-01
-1.879626661539077759e-01
-2.349288612604141235e-01
-2.845643758773803711e-01
-3.234673738479614258e-01
-3.434318900108337402e-01
-2.659003138542175293e-01
-2.956396639347076416e-01
-2.794367372989654541e-01
-2.643971145153045654e-01
-2.603256106376647949e-01
-2.832282483577728271e-01
-3.006076514720916748e-01
-3.018517196178436279e-01
-3.024147748947143555e-01
-2.741060256958007812e-01
-2.936040759086608887e-01
-2.847342789173126221e-01
-3.022623062133789062e-01
-3.024212718009948730e-01
-3.002206385135650635e-01
-3.034651875495910645e-01
-3.118672370910644531e-01
-3.014369904994964600e-01
-3.016100823879241943e-01
-3.057384788990020752e-01
-3.060929179191589355e-01
-3.089728653430938721e-01
-2.907395362854003906e-01
-3.054590225219726562e-01
-3.175311684608459473e-01
-3.062128722667694092e-01
-3.006290793418884277e-01
-3.060761094093322754e-01
-2.878533601760864258e-01
-3.041604757308959961e-01
-3.155848383903503418e-01
-3.227876722812652588e-01
-3.455528616905212402e-01
-3.265323042869567871e-01
-3.300065100193023682e-01
-3.123690485954284668e-01
-3.147011697292327881e-01
-3.273341655731201172e-01
-3.275557756423950195e-01
-3.368444442749023438e-01
-3.565116226673126221e-01
-3.424304425716400146e-01
-3.304324448108673096e-01
-3.304383754730224609e-01
-3.302735686302185059e-01
-3.341512382030487061e-01
-3.486890196800231934e-01
-3.549903035163879395e-01
-3.655639588832855225e-01
-3.558969795703887939e-01
-3.548032343387603760e-01
-3.532524108886718750e-01
-3.614032566547393799e-01
-3.630999922752380371e-01
-3.673172295093536377e-01
-3.659003674983978271e-01
-3.750399053096771240e-01
-3.741459250450134277e-01
-3.709642887115478516e-01
-3.742780685424804688e-01
-3.727796971797943115e-01
-3.795805871486663818e-01
-3.753990828990936279e-01
-3.776550292968750000e-01
-3.761802315711975098e-01
-3.783777356147766113e-01
-3.797519803047180176e-01
-3.743449449539184570e-01
-3.786320686340332031e-01
-3.769541084766387939e-01
-3.806675970554351807e-01
-3.879308402538299561e-01
-3.788571357727050781e-01
-3.878677189350128174e-01
-3.803254365921020508e-01
-3.777044415473937988e-01
-3.842747211456298828e-01
-3.788622915744781494e-01
-3.832252025604248047e-01
-3.834812641143798828e-01
-3.776695430278778076e-01
-3.811362683773040771e-01
-3.831392526626586914e-01
-3.773875534534454346e-01
-3.773036897182464600e-01
-3.785694837570190430e-01
-3.796782195568084717e-01
-3.823037147521972656e-01
-3.761650621891021729e-01
-3.767006099224090576e-01
-3.778882324695587158e-01
-3.743816316127777100e-01
-3.818331360816955566e-01
-3.866215646266937256e-01
-3.765062093734741211e-01
-3.761263489723205566e-01
-3.821513354778289795e-01
-3.695583939552307129e-01
-3.714976012706756592e-01
-3.527500331401824951e-01
-3.695497214794158936e-01
-3.569792807102203369e-01
-3.567012846469879150e-01
-3.211741149425506592e-01
-3.147431313991546631e-01
-3.243131041526794434e-01
-3.325361609458923340e-01
-3.244793415069580078e-01
-3.173915445804595947e-01
-3.191289007663726807e-01
-3.105738461017608643e-01
-3.222990334033966064e-01
1.119765192270278931e-01
-3.293129801750183105e-01
-3.142015039920806885e-01
1.060970202088356018e-01
1.214939951896667480e-01
2.361670881509780884e-01
2.779663205146789551e-01
1.756077557802200317e-01
2.348452210426330566e-01
2.802065610885620117e-01
2.829335331916809082e-01
2.579948604106903076e-01
2.756356894969940186e-01
-2.831545770168304443e-01
-2.659724950790405273e-01
-2.736203670501708984e-01
-2.703083157539367676e-01
-2.881560623645782471e-01
-2.808284461498260498e-01
-2.789443135261535645e-01
-2.684612572193145752e-01
-2.696058154106140137e-01
2.678191363811492920e-01
-2.593603432178497314e-01
2.714342772960662842e-01
2.894889116287231445e-01
2.963884174823760986e-01
2.866763472557067871e-01
2.827470004558563232e-01
2.780893445014953613e-01
2.821570336818695068e-01
2.784041762351989746e-01
2.740718126296997070e-01
2.814553081989288330e-01
2.867671549320220947e-01
-2.249326109886169434e-01
-2.475925236940383911e-01
-2.448354214429855347e-01
2.849583029747009277e-01
-2.254471480846405029e-01
-2.214802950620651245e-01
-1.782617866992950439e-01
3.192246258258819580e-01
-1.794327497482299805e-01
2.057604938745498657e-01
-1.701853275299072266e-01
1.332606077194213867e-01
2.677334845066070557e-01
2.792188525199890137e-01
-5.410351231694221497e-02
3.227687478065490723e-01
-6.894026696681976318e-02
-1.068100705742835999e-01
5.331131443381309509e-02
2.851017415523529053e-01
-1.020290479063987732e-01
2.933065891265869141e-01
2.880757153034210205e-01
2.707113921642303467e-01
2.573334872722625732e-01
2.569291889667510986e-01
2.893410623073577881e-01
2.805392742156982422e-01
2.767044603824615479e-01
2.910052835941314697e-01
3.467232882976531982e-01
-7.647117227315902710e-02
-1.205268874764442444e-01
-1.407415717840194702e-01
3.744256198406219482e-01
3.407286107540130615e-01
-1.994666270911693573e-02
3.343889117240905762e-01
3.469858765602111816e-01
3.364836871623992920e-01
3.283369541168212891e-01
3.510009050369262695e-01
3.732898831367492676e-01
3.607838451862335205e-01
3.526287078857421875e-01
3.737867772579193115e-01
3.924378454685211182e-01
6.035247072577476501e-02
1.951580494642257690e-02
1.208350621163845062e-02
3.951498866081237793e-01
3.675919175148010254e-01
1.048418655991554260e-01
3.608769476413726807e-01
3.879678249359130859e-01
3.912745714187622070e-01
3.873356282711029053e-01
3.920788466930389404e-01
3.974022865295410156e-01
3.917525708675384521e-01
3.877114951610565186e-01
3.892083168029785156e-01
3.932234644889831543e-01
3.909597992897033691e-01
3.885335028171539307e-01
3.917252421379089355e-01
3.910730183124542236e-01
3.917968273162841797e-01
3.914998769760131836e-01
3.916201591491699219e-01
3.912080228328704834e-01
3.883855640888214111e-01
3.797950744628906250e-01
3.857588768005371094e-01
3.888235390186309814e-01
3.869465887546539307e-01
3.867552280426025391e-01
3.858562111854553223e-01
3.850291967391967773e-01
3.877479135990142822e-01
3.908286094665527344e-01
3.915301859378814697e-01
3.925724327564239502e-01
3.409495353698730469e-01
3.895835578441619873e-01
3.904818594455718994e-01
3.904149532318115234e-01
3.756074607372283936e-01
3.915297091007232666e-01
3.904520273208618164e-01
3.881910145282745361e-01
3.726908564567565918e-01
3.712715208530426025e-01
3.763583302497863770e-01
3.677783608436584473e-01
3.797563910484313965e-01
3.658071756362915039e-01
3.731093406677246094e-01
3.775459229946136475e-01
3.610299229621887207e-01
3.629179000854492188e-01
3.774109482765197754e-01
3.686761260032653809e-01
3.730293512344360352e-01
3.707856833934783936e-01
3.614085018634796143e-01
3.511016964912414551e-01
3.627052307128906250e-01
3.539040386676788330e-01
3.599390089511871338e-01
3.504958450794219971e-01
3.588313162326812744e-01
3.493314981460571289e-01
3.401475250720977783e-01
3.633641898632049561e-01
3.399813771247863770e-01
3.442395031452178955e-01
3.457581102848052979e-01
3.373726904392242432e-01
3.427201509475708008e-01
3.440388143062591553e-01
3.227616250514984131e-01
3.016031384468078613e-01
3.038338720798492432e-01
2.962544262409210205e-01
2.956530749797821045e-01
2.879475951194763184e-01
2.940813601016998291e-01
2.893970012664794922e-01
2.874902784824371338e-01
2.580422163009643555e-01
2.747551798820495605e-01
2.558532655239105225e-01
2.509877979755401611e-01
2.409006208181381226e-01
2.388657629489898682e-01
2.402101308107376099e-01
1.957675814628601074e-01
1.585867106914520264e-01
1.454418301582336426e-01
1.483687311410903931e-01
1.179093122482299805e-01
5.300074815750122070e-02
5.762883648276329041e-02
4.910753294825553894e-02
2.717483788728713989e-02
9.643347933888435364e-03
-7.223283872008323669e-03
-1.636130735278129578e-02
-3.504735231399536133e-02
-7.107551395893096924e-02
-7.543557882308959961e-02
-6.983105093240737915e-02
-8.385021984577178955e-02
-8.220602571964263916e-02
-8.566746860742568970e-02
-1.171161606907844543e-01
-1.691024601459503174e-01
-1.660646647214889526e-01
-1.596000790596008301e-01
-1.677383929491043091e-01
-1.557901948690414429e-01
-1.788804829120635986e-01
-1.929545998573303223e-01
-2.387599349021911621e-01
-2.420985847711563110e-01
-2.108014971017837524e-01
-1.994341164827346802e-01
-1.797105967998504639e-01
-2.034073173999786377e-01
-1.855756342411041260e-01
-2.085694968700408936e-01
-2.027195543050765991e-01
-2.330708652734756470e-01
-2.016829103231430054e-01
-2.038662731647491455e-01
-2.078413218259811401e-01
-2.264763265848159790e-01
-2.286279201507568359e-01
-2.243817746639251709e-01
-2.524647116661071777e-01
-2.392391562461853027e-01
-2.290064096450805664e-01
-2.111556082963943481e-01
-2.402246892452239990e-01
-2.432773709297180176e-01
-2.602269649505615234e-01
-2.760057449340820312e-01
-2.838163375854492188e-01
-3.020505607128143311e-01
-2.719852030277252197e-01
-2.681327164173126221e-01
-2.650187313556671143e-01
-2.732149362564086914e-01
-2.817949354648590088e-01
-2.880547642707824707e-01
-2.951519489288330078e-01
-3.114188015460968018e-01
-3.066768944263458252e-01
-2.976915538311004639e-01
-2.955740690231323242e-01
-2.889252901077270508e-01
-2.899057865142822266e-01
-3.036140203475952148e-01
-3.152236938476562500e-01
-3.076903522014617920e-01
-3.182273209095001221e-01
-2.981733083724975586e-01
-3.005833625793457031e-01
-3.203827440738677979e-01
-3.167564570903778076e-01
-3.245166540145874023e-01
-2.984240055084228516e-01
-3.256588578224182129e-01
-3.161277174949645996e-01
-3.188526034355163574e-01
-3.174442052841186523e-01
-3.387399017810821533e-01
-3.380711078643798828e-01
-3.328639566898345947e-01
-3.472145497798919678e-01
-3.449144661426544189e-01
-3.508894741535186768e-01
-3.296169042587280273e-01
-3.394342064857482910e-01
-3.367668986320495605e-01
-3.462271988391876221e-01
-3.467997908592224121e-01
-3.190732896327972412e-01
-3.723972439765930176e-01
-3.469535410404205322e-01
-2.872116267681121826e-01
-3.370628356933593750e-01
-3.342154622077941895e-01
-3.470201194286346436e-01
-3.243927359580993652e-01
-3.318558335304260254e-01
-3.208315968513488770e-01
-3.163616359233856201e-01
-3.342272937297821045e-01
-3.155335187911987305e-01
-3.139259815216064453e-01
-3.094008564949035645e-01
-3.059875965118408203e-01
-3.273776471614837646e-01
-3.113065958023071289e-01
-2.042013108730316162e-01
-1.503414362668991089e-01
-2.060425579547882080e-01
-7.212831079959869385e-02
-1.135584786534309387e-01
-1.018134579062461853e-01
-9.075825661420822144e-02
-1.298934668302536011e-01
-1.786986291408538818e-01
-3.397459089756011963e-01
-3.038298189640045166e-01
-3.483138680458068848e-01
-3.495155274868011475e-01
-3.153486847877502441e-01
-2.968072891235351562e-01
-3.111880123615264893e-01
-3.178541064262390137e-01
-3.232533037662506104e-01
-3.202186822891235352e-01
-3.234019279479980469e-01
-2.472380101680755615e-01
-2.848911881446838379e-01
1.664015054702758789e-01
1.141158193349838257e-01
-1.045076251029968262e-01
2.770185470581054688e-01
2.841292023658752441e-01
3.126738369464874268e-01
2.987965345382690430e-01
2.871505618095397949e-01
3.107497990131378174e-01
3.152206242084503174e-01
2.906388640403747559e-01
3.148378431797027588e-01
-2.486246079206466675e-01
-3.208501040935516357e-01
-3.366288840770721436e-01
-3.108952045440673828e-01
-3.044238388538360596e-01
-2.614776492118835449e-01
-2.741968929767608643e-01
-2.797781229019165039e-01
-2.665073871612548828e-01
-2.972283065319061279e-01
-2.465028315782546997e-01
3.145596981048583984e-01
-2.308889478445053101e-01
-2.374050766229629517e-01
3.279212713241577148e-01
3.313204944133758545e-01
-1.862302273511886597e-01
-2.385341376066207886e-01
-2.453753203153610229e-01
2.697252333164215088e-01
2.912688255310058594e-01
2.631950080394744873e-01
2.446759939193725586e-01
-8.953878283500671387e-02
2.645528912544250488e-01
2.524128258228302002e-01
2.391197383403778076e-01
2.405728101730346680e-01
-2.222072184085845947e-01
2.278838455677032471e-01
2.414523214101791382e-01
2.415448278188705444e-01
2.398699522018432617e-01
2.531062662601470947e-01
-2.014337480068206787e-01
-1.697420030832290649e-01
4.369463399052619934e-02
-1.751666069030761719e-01
-1.857745945453643799e-01
-1.724472045898437500e-01
-1.713533103466033936e-01
-1.628457605838775635e-01
2.321833074092864990e-01
2.429186254739761353e-01
-7.121098041534423828e-02
2.070516347885131836e-01
2.216137647628784180e-01
2.192167043685913086e-01
2.069335877895355225e-01
2.210765480995178223e-01
2.106911838054656982e-01
2.228955626487731934e-01
2.304885685443878174e-01
2.447268515825271606e-01
-6.690394878387451172e-02
-8.936798572540283203e-02
-1.003064140677452087e-01
-1.090491861104965210e-01
-2.809796854853630066e-02
3.096294403076171875e-01
-4.037142172455787659e-02
3.467721641063690186e-01
3.046330511569976807e-01
3.106320500373840332e-01
3.088384866714477539e-01
3.164438307285308838e-01
3.440660238265991211e-01
3.287447094917297363e-01
3.265370726585388184e-01
3.052899539470672607e-01
3.395740091800689697e-01
3.601346909999847412e-01
7.070589810609817505e-02
3.649287521839141846e-01
3.350714445114135742e-01
3.535259664058685303e-01
2.413257658481597900e-01
9.654553234577178955e-02
3.078976869583129883e-01
3.222636580467224121e-01
3.341596126556396484e-01
3.477154374122619629e-01
2.238106578588485718e-01
3.391105234622955322e-01
3.208100199699401855e-01
3.664467334747314453e-01
2.412993758916854858e-01
1.793924570083618164e-01
1.985871642827987671e-01
2.678343355655670166e-01
3.098440468311309814e-01
3.845631778240203857e-01
3.049949109554290771e-01
3.747533261775970459e-01
3.778857290744781494e-01
3.509785532951354980e-01
3.311493694782257080e-01
3.510667681694030762e-01
3.553337752819061279e-01
3.607200384140014648e-01
3.555952012538909912e-01
3.321056067943572998e-01
3.837111890316009521e-01
3.417367339134216309e-01
2.881251871585845947e-01
2.933844923973083496e-01
3.733984529972076416e-01
3.890729546546936035e-01
2.895263731479644775e-01
3.615997731685638428e-01
3.818345069885253906e-01
3.825821578502655029e-01
3.847652077674865723e-01
3.730097413063049316e-01
3.818579316139221191e-01
3.756891787052154541e-01
3.534473478794097900e-01
3.784072101116180420e-01
3.808670043945312500e-01
3.719989061355590820e-01
3.462285399436950684e-01
3.622930943965911865e-01
3.884523510932922363e-01
3.832758665084838867e-01
3.858647644519805908e-01
3.890863955020904541e-01
3.876582086086273193e-01
3.873023688793182373e-01
3.773964047431945801e-01
3.752450346946716309e-01
3.906069695949554443e-01
3.764789402484893799e-01
3.725515305995941162e-01
3.734378814697265625e-01
3.702549338340759277e-01
3.578108847141265869e-01
3.536929190158843994e-01
3.576291799545288086e-01
3.620186746120452881e-01
3.661361038684844971e-01
3.554028570652008057e-01
3.528891801834106445e-01
3.534947931766510010e-01
3.549402058124542236e-01
3.509130775928497314e-01
3.626669347286224365e-01
3.592283427715301514e-01
3.495825231075286865e-01
3.419081866741180420e-01
3.303672373294830322e-01
3.255906403064727783e-01
3.412757515907287598e-01
3.362320363521575928e-01
3.278876543045043945e-01
3.303598761558532715e-01
3.164658844470977783e-01
3.173552751541137695e-01
2.944147288799285889e-01
2.934370934963226318e-01
3.010410368442535400e-01
2.906003594398498535e-01
2.901898026466369629e-01
2.903876602649688721e-01
2.831817567348480225e-01
2.763837277889251709e-01
2.608104646205902100e-01
2.581422030925750732e-01
2.683611512184143066e-01
2.496999651193618774e-01
2.497526705265045166e-01
2.334004491567611694e-01
2.358307987451553345e-01
2.301518470048904419e-01
2.152743935585021973e-01
2.037972211837768555e-01
2.006822973489761353e-01
1.891420483589172363e-01
1.478125303983688354e-01
1.322074234485626221e-01
1.213949918746948242e-01
1.268718391656875610e-01
9.551919996738433838e-02
5.948878452181816101e-02
6.561047583818435669e-02
4.717469215393066406e-02
4.210041835904121399e-02
3.023402206599712372e-02
1.392398308962583542e-02
1.739624701440334320e-02
8.778268471360206604e-03
-1.387438038364052773e-03
-2.745821699500083923e-02
-3.436654433608055115e-02
-6.082205846905708313e-02
-9.206118434667587280e-02
-1.011413484811782837e-01
-1.444427818059921265e-01
-1.777937412261962891e-01
-1.656008660793304443e-01
-1.887642741203308105e-01
-1.532313972711563110e-01
-1.703087985515594482e-01
-1.501654386520385742e-01
-1.648067533969879150e-01
-1.632545739412307739e-01
-1.643767654895782471e-01
-1.586844325065612793e-01
-1.723141074180603027e-01
-1.565335839986801147e-01
-1.588909178972244263e-01
-1.572024822235107422e-01
-1.618744432926177979e-01
-1.676015257835388184e-01
-1.691122949123382568e-01
-1.630260050296783447e-01
-1.737324595451354980e-01
-1.677968502044677734e-01
-1.753330081701278687e-01
-1.818240880966186523e-01
-1.669737249612808228e-01
-1.750282496213912964e-01
-1.709419488906860352e-01
-1.753672361373901367e-01
-1.738373339176177979e-01
-1.839109361171722412e-01
-1.963701099157333374e-01
-1.844282150268554688e-01
-1.856664270162582397e-01
-1.981551200151443481e-01
-2.133569717407226562e-01
-2.033030986785888672e-01
-2.004094123840332031e-01
-1.870081275701522827e-01
-1.939145177602767944e-01
-1.956901252269744873e-01
-1.913774907588958740e-01
-1.982952654361724854e-01
-2.163984030485153198e-01
-2.070810496807098389e-01
-1.958878934383392334e-01
-1.935046017169952393e-01
-2.114884108304977417e-01
-2.097767591476440430e-01
-2.005267590284347534e-01
-1.843110471963882446e-01
-2.081220149993896484e-01
-2.074647843837738037e-01
-2.088313102722167969e-01
-2.057004272937774658e-01
-1.977688819169998169e-01
-2.030176669359207153e-01
-2.027306407690048218e-01
-2.156462371349334717e-01
-2.191475778818130493e-01
-2.262199521064758301e-01
-2.099005430936813354e-01
-1.991003453731536865e-01
-1.986286342144012451e-01
-2.181359380483627319e-01
-2.130880951881408691e-01
-2.361223995685577393e-01
-2.559297978878021240e-01
-2.356390953063964844e-01
-2.597149014472961426e-01
-2.172651886940002441e-01
-2.430771887302398682e-01
-2.362222671508789062e-01
-2.367477267980575562e-01
-2.102444469928741455e-01
-2.105807065963745117e-01
-2.288735806941986084e-01
-2.281194031238555908e-01
-2.548471987247467041e-01
-2.830210030078887939e-01
-2.694196105003356934e-01
-2.460403144359588623e-01
-2.117276489734649658e-01
-2.549753785133361816e-01
-2.339885234832763672e-01
-2.064008414745330811e-01
-2.289462387561798096e-01
-2.075532674789428711e-01
-2.024701833724975586e-01
-2.162362933158874512e-01
-1.924704462289810181e-01
-2.524842619895935059e-01
-2.475512474775314331e-01
-2.294321060180664062e-01
-2.411265075206756592e-01
-2.671908140182495117e-01
-2.357653677463531494e-01
-2.684707045555114746e-01
-2.569997310638427734e-01
-2.505493462085723877e-01
-2.726702392101287842e-01
-2.553514540195465088e-01
-2.732436358928680420e-01
-2.736592888832092285e-01
-2.879656851291656494e-01
3.198004886507987976e-02
-2.908226251602172852e-01
6.638958305120468140e-02
2.352728992700576782e-01
2.454980611801147461e-01
2.484002113342285156e-01
2.492704391479492188e-01
2.593062520027160645e-01
-2.371402382850646973e-01
2.042522728443145752e-01
2.540486156940460205e-01
-2.882360517978668213e-01
-2.558310627937316895e-01
-2.608204782009124756e-01
2.505700886249542236e-01
-2.792583405971527100e-01
2.757154405117034912e-01
2.998321354389190674e-01
-1.812011003494262695e-01
2.881748080253601074e-01
2.878060042858123779e-01
3.119665384292602539e-01
3.195760846138000488e-01
1.963764429092407227e-01
3.223766088485717773e-01
3.534384071826934814e-01
-2.642928659915924072e-01
-2.738601565361022949e-01
-2.818895578384399414e-01
-2.847467064857482910e-01
-2.824960649013519287e-01
-2.774533629417419434e-01
-2.658632695674896240e-01
2.321439683437347412e-01
-2.346194386482238770e-01
2.968478798866271973e-01
3.036563694477081299e-01
3.105002045631408691e-01
2.956302762031555176e-01
2.809902727603912354e-01
2.869076728820800781e-01
2.755153477191925049e-01
2.773666381835937500e-01
2.786682844161987305e-01
2.842583656311035156e-01
2.627038955688476562e-01
2.820651829242706299e-01
-9.088845923542976379e-03
2.565523684024810791e-01
-1.943574547767639160e-01
-2.193145304918289185e-01
-2.056148946285247803e-01
-1.918719708919525146e-01
-1.912077665328979492e-01
-1.751216202974319458e-01
-1.729137450456619263e-01
-1.348634958267211914e-01
2.835074663162231445e-01
2.504659891128540039e-01
-3.469001501798629761e-02
2.508683204650878906e-01
2.328118830919265747e-01
2.602098286151885986e-01
2.537018060684204102e-01
2.480013966560363770e-01
2.835885286331176758e-01
2.776876389980316162e-01
2.665551602840423584e-01
2.796243429183959961e-01
3.239585757255554199e-01
2.903161346912384033e-01
2.890255749225616455e-01
2.977766692638397217e-01
3.087427616119384766e-01
3.208147883415222168e-01
3.239425718784332275e-01
3.024305999279022217e-01
3.323876261711120605e-01
3.255363404750823975e-01
3.155563473701477051e-01
3.191956877708435059e-01
3.299656510353088379e-01
3.332360684871673584e-01
-7.256640493869781494e-02
-1.041135415434837341e-01
-8.699797838926315308e-02
-1.249962374567985535e-01
-2.103868573904037476e-01
-1.492672264575958252e-01
3.311092853546142578e-01
-1.190294325351715088e-01
1.878522038459777832e-01
3.407198488712310791e-01
3.486292660236358643e-01
-4.559969156980514526e-02
3.387088179588317871e-01
3.638379871845245361e-01
3.562642335891723633e-01
3.213043808937072754e-01
3.549973964691162109e-01
3.509041368961334229e-01
3.716188371181488037e-01
3.535826802253723145e-01
3.583909571170806885e-01
3.776119053363800049e-01
3.828291893005371094e-01
3.680413067340850830e-01
3.839937746524810791e-01
3.785504698753356934e-01
3.647300004959106445e-01
3.755749762058258057e-01
3.710401654243469238e-01
3.790747821331024170e-01
3.543325364589691162e-01
3.439780771732330322e-01
3.729470670223236084e-01
3.638961315155029297e-01
3.648065328598022461e-01
3.645483851432800293e-01
3.544563055038452148e-01
3.543290793895721436e-01
3.329643905162811279e-01
3.416938483715057373e-01
3.524932563304901123e-01
3.341368734836578369e-01
3.406755328178405762e-01
3.364303410053253174e-01
3.415745794773101807e-01
3.313356339931488037e-01
3.312160372734069824e-01
3.362408876419067383e-01
3.307540118694305420e-01
3.317424952983856201e-01
3.236154019832611084e-01
3.260856270790100098e-01
3.314822912216186523e-01
3.225364983081817627e-01
3.230551183223724365e-01
3.203047513961791992e-01
3.187074363231658936e-01
3.191828727722167969e-01
3.141354620456695557e-01
3.150457441806793213e-01
3.187986612319946289e-01
3.156032562255859375e-01
3.163958489894866943e-01
3.148056566715240479e-01
3.023467957973480225e-01
3.078254759311676025e-01
3.079241216182708740e-01
3.008127808570861816e-01
2.919529676437377930e-01
2.858403623104095459e-01
2.975654900074005127e-01
2.887268960475921631e-01
2.900871932506561279e-01
2.815780043601989746e-01
2.874697446823120117e-01
2.826837003231048584e-01
2.648642659187316895e-01
2.749254405498504639e-01
2.674165964126586914e-01
2.756460905075073242e-01
2.651677727699279785e-01
2.762317359447479248e-01
2.663057744503021240e-01
2.567991316318511963e-01
2.297212630510330200e-01
2.351409792900085449e-01
2.502537369728088379e-01
2.540899515151977539e-01
2.283088117837905884e-01
2.328980118036270142e-01
2.207942157983779907e-01
2.219813168048858643e-01
1.959162950515747070e-01
1.990698426961898804e-01
2.092891633510589600e-01
1.866705864667892456e-01
1.501357108354568481e-01
1.837804764509201050e-01
1.851631999015808105e-01
1.515720039606094360e-01
1.411150842905044556e-01
1.425496637821197510e-01
1.516988724470138550e-01
1.360451281070709229e-01
1.100230142474174500e-01
1.263575553894042969e-01
1.421446055173873901e-01
1.148122847080230713e-01
9.508795291185379028e-02
5.451697483658790588e-02
6.750532984733581543e-02
6.330905854701995850e-02
5.715007707476615906e-02
6.156824529170989990e-02
6.219888105988502502e-02
4.091932252049446106e-02
2.392807975411415100e-02
5.088444333523511887e-03
-1.065304968506097794e-04
1.735921949148178101e-02
1.555485744029283524e-02
7.555708289146423340e-03
8.773328736424446106e-03
-1.861413940787315369e-02
-3.052190691232681274e-02
-2.875053510069847107e-02
-3.389095887541770935e-02
-3.016644716262817383e-02
-2.579376287758350372e-02
-2.819978445768356323e-02
-5.341000854969024658e-02
-7.151513546705245972e-02
-7.312108576297760010e-02
-7.024008780717849731e-02
-9.936940670013427734e-02
-1.258856505155563354e-01
-8.556219935417175293e-02
-1.043883636593818665e-01
-1.306518316268920898e-01
-1.307238042354583740e-01
-1.245337799191474915e-01
-1.394404768943786621e-01
-1.586401909589767456e-01
-1.669722050428390503e-01
-1.506574451923370361e-01
-1.456371247768402100e-01
-1.599710136651992798e-01
-1.597222685813903809e-01
-1.550418734550476074e-01
-1.669529825448989868e-01
-1.760864704847335815e-01
-2.032154649496078491e-01
-1.883974671363830566e-01
-1.756884306669235229e-01
-1.913558542728424072e-01
-2.044647932052612305e-01
-2.132753580808639526e-01
-2.090235203504562378e-01
-2.258943170309066772e-01
-2.564461231231689453e-01
-2.257528752088546753e-01
-2.176452130079269409e-01
-2.212843000888824463e-01
-2.526954412460327148e-01
-2.686558961868286133e-01
-2.863779664039611816e-01
-3.076814115047454834e-01
-3.256483972072601318e-01
-3.163506686687469482e-01
-2.975937128067016602e-01
-3.084405064582824707e-01
-3.112522959709167480e-01
-3.334671556949615479e-01
-3.402768969535827637e-01
-3.388362526893615723e-01
-3.457581698894500732e-01
-3.503380715847015381e-01
-3.408758938312530518e-01
-3.217321634292602539e-01
-3.297541737556457520e-01
-3.281707465648651123e-01
-3.423963487148284912e-01
-3.415991663932800293e-01
-3.360405862331390381e-01
-3.208906948566436768e-01
-3.350766301155090332e-01
-3.264209330081939697e-01
-3.429727256298065186e-01
-3.569847643375396729e-01
-3.419677317142486572e-01
-3.177523016929626465e-01
-3.381230235099792480e-01
-3.230840265750885010e-01
-3.152780234813690186e-01
-3.197233676910400391e-01
-3.509590625762939453e-01
-3.319620788097381592e-01
-3.582272529602050781e-01
-3.521145284175872803e-01
-3.599261939525604248e-01
-3.314494192600250244e-01
-3.022264838218688965e-01
-3.210782408714294434e-01
-3.203835487365722656e-01
-3.455392420291900635e-01
-3.153970539569854736e-01
-2.982861697673797607e-01
-3.031057417392730713e-01
-2.829415798187255859e-01
-3.088879883289337158e-01
-3.279258310794830322e-01
-3.436402678489685059e-01
-2.616834342479705811e-01
-3.565900325775146484e-01
9.868510067462921143e-03
7.506892830133438110e-02
1.772737801074981689e-01
1.589354872703552246e-01
1.964667290449142456e-01
2.225633859634399414e-01
1.821145713329315186e-01
1.937461495399475098e-01
1.916000694036483765e-01
-3.451594710350036621e-01
-3.182175457477569580e-01
-2.993980944156646729e-01
-2.783201932907104492e-01
-2.854329943656921387e-01
-2.811914980411529541e-01
-2.731101810932159424e-01
-2.826709747314453125e-01
-2.711789608001708984e-01
-2.743782997131347656e-01
-2.683133184909820557e-01
-2.680208981037139893e-01
-2.704789936542510986e-01
-2.717155516147613525e-01
2.626210153102874756e-01
-2.627740204334259033e-01
2.546860575675964355e-01
2.790960669517517090e-01
2.919670939445495605e-01
2.810486257076263428e-01
2.734144628047943115e-01
2.626196742057800293e-01
2.513531744480133057e-01
2.566846907138824463e-01
2.453324496746063232e-01
2.422721982002258301e-01
2.206482887268066406e-01
2.361662089824676514e-01
2.469407320022583008e-01
2.564533948898315430e-01
2.429488152265548706e-01
2.456441372632980347e-01
-2.378881126642227173e-01
-2.341103553771972656e-01
-2.177566587924957275e-01
-2.027307897806167603e-01
-1.845458298921585083e-01
-1.670152246952056885e-01
-1.569870412349700928e-01
-1.527462601661682129e-01
-1.686006784439086914e-01
-1.575309038162231445e-01
-1.172134950757026672e-01
-1.363394260406494141e-01
-1.261090487241744995e-01
-1.183828935027122498e-01
2.173592597246170044e-01
1.291254609823226929e-01
1.768757998943328857e-01
2.042514532804489136e-01
1.882337331771850586e-01
1.815967261791229248e-01
1.688772737979888916e-01
1.567308157682418823e-01
1.709712147712707520e-01
1.764772832393646240e-01
1.660021394491195679e-01
1.847570687532424927e-01
1.989519596099853516e-01
-7.502107322216033936e-02
6.495483219623565674e-02
-4.174228757619857788e-02
2.096092104911804199e-01
7.408136036247014999e-03
-1.755234226584434509e-02
3.466505110263824463e-01
2.294533401727676392e-01
3.288403898477554321e-02
3.460691869258880615e-01
5.694732069969177246e-02
3.377387821674346924e-01
3.085247874259948730e-01
2.786653041839599609e-01
3.341468274593353271e-01
3.150109052658081055e-01
3.117720186710357666e-01
3.074978590011596680e-01
3.632788956165313721e-01
3.821868896484375000e-01
2.737019658088684082e-01
3.112356066703796387e-01
3.803349733352661133e-01
3.842175602912902832e-01
3.194905519485473633e-01
3.878206908702850342e-01
3.589467406272888184e-01
3.998472392559051514e-01
3.838842809200286865e-01
3.774419724941253662e-01
3.900568485260009766e-01
3.840469419956207275e-01
3.399378061294555664e-01
3.522162735462188721e-01
3.766557872295379639e-01
3.568640649318695068e-01
3.498914241790771484e-01
3.659121394157409668e-01
3.797990381717681885e-01
3.783859610557556152e-01
3.759528100490570068e-01
3.844240605831146240e-01
3.855284750461578369e-01
3.904100954532623291e-01
3.805527687072753906e-01
3.634712696075439453e-01
3.779392838478088379e-01
3.906552791595458984e-01
3.552123010158538818e-01
3.782147169113159180e-01
3.820697367191314697e-01
3.725302517414093018e-01
3.796968162059783936e-01
3.541805446147918701e-01
3.648347556591033936e-01
3.778264820575714111e-01
3.565225601196289062e-01
3.675325810909271240e-01
3.661630451679229736e-01
3.728266060352325439e-01
3.516306877136230469e-01
3.629670441150665283e-01
3.339899480342864990e-01
3.555276691913604736e-01
3.580819666385650635e-01
3.605063259601593018e-01
3.597419261932373047e-01
3.336608409881591797e-01
3.389318287372589111e-01
3.430463969707489014e-01
3.168040215969085693e-01
3.059902191162109375e-01
3.396381437778472900e-01
3.212511837482452393e-01
3.090925216674804688e-01
3.032550215721130371e-01
3.215350806713104248e-01
3.244233727455139160e-01
3.132564127445220947e-01
3.060004115104675293e-01
3.182395100593566895e-01
3.032459616661071777e-01
2.933998405933380127e-01
2.770465314388275146e-01
2.901405990123748779e-01
2.764534950256347656e-01
2.675329744815826416e-01
2.593428492546081543e-01
2.768654227256774902e-01
2.627938389778137207e-01
2.387936115264892578e-01
2.276424616575241089e-01
2.308651804924011230e-01
2.418778985738754272e-01
2.149948179721832275e-01
2.063603401184082031e-01
2.086426764726638794e-01
2.008697390556335449e-01
1.921902298927307129e-01
1.881595253944396973e-01
1.852008700370788574e-01
1.853159219026565552e-01
1.814568787813186646e-01
1.687047332525253296e-01
1.658768653869628906e-01
1.506134569644927979e-01
1.478992551565170288e-01
1.489666849374771118e-01
1.504534184932708740e-01
1.277177482843399048e-01
1.203179359436035156e-01
1.175067797303199768e-01
1.028540134429931641e-01
9.829509258270263672e-02
7.693091034889221191e-02
9.036479145288467407e-02
8.939589560031890869e-02
6.079819425940513611e-02
4.732089489698410034e-02
4.062956944108009338e-02
3.348977863788604736e-02
8.795723319053649902e-03
1.064208522439002991e-02
4.516155458986759186e-03
-9.178146719932556152e-03
-2.389627508819103241e-02
-2.961210347712039948e-02
-3.133615851402282715e-02
-4.207611829042434692e-02
-5.842836573719978333e-02
-7.485942542552947998e-02
-9.292162209749221802e-02
-8.984726667404174805e-02
-1.056546866893768311e-01
-1.198029145598411560e-01
-1.201728507876396179e-01
-1.210400536656379700e-01
-1.419216096401214600e-01
-1.620484888553619385e-01
-1.723870038986206055e-01
-1.854330748319625854e-01
-2.253647148609161377e-01
-2.031292766332626343e-01
-2.130115181207656860e-01
-2.170226424932479858e-01
-2.235148400068283081e-01
-2.284488826990127563e-01
-2.353241741657257080e-01
-2.385500967502593994e-01
-2.465588450431823730e-01
-2.465346604585647583e-01
-2.358955889940261841e-01
-2.497754096984863281e-01
-2.496385425329208374e-01
-2.473056763410568237e-01
-2.518025934696197510e-01
-2.517974376678466797e-01
-2.651316821575164795e-01
-2.615262269973754883e-01
-2.585539221763610840e-01
-2.656426131725311279e-01
-2.667220532894134521e-01
-2.679294943809509277e-01
-2.693617641925811768e-01
-2.862232625484466553e-01
-2.952274680137634277e-01
-2.880077660083770752e-01
-2.764003872871398926e-01
-2.881537079811096191e-01
-2.799232602119445801e-01
-2.893404066562652588e-01
-2.916987836360931396e-01
-3.014792203903198242e-01
-3.196411132812500000e-01
-3.078799247741699219e-01
-2.943747639656066895e-01
-3.005167543888092041e-01
-2.881617248058319092e-01
-3.037593662738800049e-01
-2.969714105129241943e-01
-3.173655569553375244e-01
-3.235584795475006104e-01
-3.124532699584960938e-01
-2.902144193649291992e-01
-2.883421778678894043e-01
-3.017193078994750977e-01
-3.149591684341430664e-01
-3.222098946571350098e-01
-3.077903985977172852e-01
-3.327816724777221680e-01
-3.218011856079101562e-01
-3.224146366119384766e-01
-3.144593536853790283e-01
-3.126729726791381836e-01
-3.351160585880279541e-01
-3.427671194076538086e-01
-3.424175679683685303e-01
-3.321087658405303955e-01
-3.087056577205657959e-01
-2.920544445514678955e-01
-2.999822199344635010e-01
-3.182484507560729980e-01
-3.300804495811462402e-01
-3.065558671951293945e-01
-3.355422914028167725e-01
-3.333185017108917236e-01
-3.485749661922454834e-01
-3.505898714065551758e-01
-3.409304916858673096e-01
-3.145539462566375732e-01
-3.728572726249694824e-01
-3.480421602725982666e-01
-3.590411543846130371e-01
-3.162611126899719238e-01
-3.486505448818206787e-01
-2.182068862020969391e-02
-2.719450891017913818e-01
4.901234060525894165e-02
4.467044770717620850e-02
1.009864509105682373e-01
8.898457139730453491e-02
1.183633133769035339e-01
3.417402878403663635e-02
-5.058741196990013123e-02
-2.565839588642120361e-01
-2.723696529865264893e-01
-2.899263501167297363e-01
-2.869984209537506104e-01
-2.769451141357421875e-01
-3.153730630874633789e-01
-2.863725721836090088e-01
-2.907974421977996826e-01
-3.027226626873016357e-01
-2.978357374668121338e-01
-3.292108178138732910e-01
-3.435515463352203369e-01
-2.821216583251953125e-01
-2.853995561599731445e-01
-2.842461764812469482e-01
-3.234629333019256592e-01
-2.654165923595428467e-01
-2.495926469564437866e-01
-2.611597180366516113e-01
-2.518092691898345947e-01
-2.470507919788360596e-01
-1.443737894296646118e-01
-2.178603559732437134e-01
-2.779603600502014160e-01
-2.827499806880950928e-01
-2.455249726772308350e-01
-1.237594410777091980e-01
-1.028890442103147507e-02
-2.325414866209030151e-01
-2.115918323397636414e-04
6.397332996129989624e-02
-2.621337957680225372e-02
-1.109328120946884155e-03
-2.804175019264221191e-04
-1.897786259651184082e-01
-1.963370293378829956e-01
-1.745096594095230103e-01
-2.613772451877593994e-01
-2.469499111175537109e-01
-1.911171525716781616e-01
-2.525107562541961670e-01
-2.383609712123870850e-01
-2.416175901889801025e-01
-2.625119090080261230e-01
-2.717404067516326904e-01
-3.192855417728424072e-01
-2.895155251026153564e-01
-2.398860156536102295e-01
7.116678170859813690e-03
-3.323319852352142334e-01
-3.511768579483032227e-01
4.595817625522613525e-02
-2.237046509981155396e-02
-2.952693104743957520e-01
-2.911343574523925781e-01
-2.533601820468902588e-01
-2.588459253311157227e-01
-2.946146428585052490e-01
-2.792259156703948975e-01
-2.736033797264099121e-01
-2.667608559131622314e-01
-1.483103632926940918e-01
-2.776654660701751709e-01
-2.461553961038589478e-01
-2.369768172502517700e-01
-2.400812208652496338e-01
1.184342876076698303e-01
2.528130710124969482e-01
-2.506147697567939758e-02
2.642504572868347168e-01
2.665814757347106934e-01
2.774499952793121338e-01
2.749880552291870117e-01
2.753368616104125977e-01
2.761826515197753906e-01
2.887513935565948486e-01
2.837651968002319336e-01
3.029346764087677002e-01
-2.152173519134521484e-01
-2.259192615747451782e-01
-2.505277395248413086e-01
-2.514887452125549316e-01
-2.374925762414932251e-01
-2.188162356615066528e-01
1.226820275187492371e-01
-2.005276829004287720e-01
3.352076709270477295e-01
2.866311669349670410e-01
2.999478280544281006e-01
2.810808420181274414e-01
2.663907706737518311e-01
2.704135179519653320e-01
2.550922930240631104e-01
2.638341188430786133e-01
2.577773034572601318e-01
2.719954848289489746e-01
2.496480941772460938e-01
2.532142698764801025e-01
2.745846211910247803e-01
2.743956148624420166e-01
2.671127915382385254e-01
3.264363110065460205e-01
1.983640789985656738e-01
-6.141920387744903564e-02
-1.021246388554573059e-01
-6.826549768447875977e-02
-4.502702504396438599e-02
6.128963828086853027e-02
-4.481074586510658264e-02
1.614384204149246216e-01
2.815394401550292969e-01
3.479922711849212646e-01
1.416954249143600464e-01
3.382901847362518311e-01
3.110877871513366699e-01
3.328590989112854004e-01
3.685189783573150635e-01
3.591001927852630615e-01
3.610000014305114746e-01
3.508800566196441650e-01
3.554314076900482178e-01
3.750113546848297119e-01
3.900027275085449219e-01
3.763512074947357178e-01
3.700428009033203125e-01
3.769619762897491455e-01
3.548776805400848389e-01
3.613235652446746826e-01
3.756012916564941406e-01
3.701201677322387695e-01
3.698498606681823730e-01
3.676410913467407227e-01
3.771329224109649658e-01
3.770870864391326904e-01
3.661403656005859375e-01
1.751970052719116211e-01
3.367384076118469238e-01
3.853804469108581543e-01
2.225138619542121887e-02
-5.089994519948959351e-02
3.677930235862731934e-01
-6.749526411294937134e-02
5.421222746372222900e-02
-1.227432489395141602e-02
2.609225362539291382e-02
-1.989722810685634613e-02
3.746431469917297363e-01
3.754231631755828857e-01
3.795419037342071533e-01
3.783150315284729004e-01
3.574480712413787842e-01
3.637929260730743408e-01
3.642904460430145264e-01
3.660284876823425293e-01
3.627707362174987793e-01
3.548849225044250488e-01
3.468460440635681152e-01
3.553852736949920654e-01
3.605141043663024902e-01
3.644350171089172363e-01
3.738263845443725586e-01
3.623722195625305176e-01
3.423711657524108887e-01
3.298202753067016602e-01
3.247576653957366943e-01
3.344490230083465576e-01
3.373946845531463623e-01
3.250335454940795898e-01
3.317718803882598877e-01
3.107478916645050049e-01
3.093475997447967529e-01
3.012567758560180664e-01
2.979566156864166260e-01
3.132842779159545898e-01
3.024016618728637695e-01
2.929001152515411377e-01
2.940524518489837646e-01
2.724163830280303955e-01
2.743323743343353271e-01
2.694385945796966553e-01
2.707149982452392578e-01
2.712764739990234375e-01
2.602877318859100342e-01
2.598426342010498047e-01
2.513887286186218262e-01
2.517658472061157227e-01
2.529042661190032959e-01
2.520451545715332031e-01
2.455907613039016724e-01
2.419328689575195312e-01
2.360230535268783569e-01
2.206313461065292358e-01
2.228333950042724609e-01
2.243726700544357300e-01
2.303178310394287109e-01
2.173884063959121704e-01
2.082394063472747803e-01
2.068740874528884888e-01
2.058856040239334106e-01
1.903863847255706787e-01
1.974988728761672974e-01
1.981620043516159058e-01
1.709613800048828125e-01
1.506098508834838867e-01
2.039358019828796387e-01
2.128738909959793091e-01
1.583045423030853271e-01
1.895504891872406006e-01
1.617102921009063721e-01
1.876426786184310913e-01
1.598200201988220215e-01
1.562267392873764038e-01
1.328240782022476196e-01
1.136639118194580078e-01
1.176083534955978394e-01
1.662982404232025146e-01
1.464419662952423096e-01
1.512542068958282471e-01
9.637561440467834473e-02
1.189638897776603699e-01
1.098981052637100220e-01
1.048731282353401184e-01
1.115903556346893311e-01
1.110765412449836731e-01
1.106748208403587341e-01
7.167650014162063599e-02
3.054034709930419922e-02
4.550157114863395691e-02
6.469601392745971680e-02
5.819163843989372253e-02
4.634790122509002686e-02
4.228724911808967590e-02
4.522575065493583679e-02
2.305170893669128418e-02
1.125803031027317047e-02
1.670404896140098572e-02
2.098446339368820190e-02
1.546503324061632156e-02
1.098467223346233368e-02
6.607539951801300049e-03
1.998867467045783997e-02
5.579974502325057983e-03
2.950144466012716293e-03
-6.441612262278795242e-03
-1.088790781795978546e-02
-9.482462890446186066e-03
-1.928516477346420288e-02
-1.848245039582252502e-02
-2.197692170739173889e-02
-1.615433581173419952e-02
-1.075969915837049484e-02
-1.898092404007911682e-02
-1.508622709661722183e-02
-3.335008397698402405e-02
-3.061641007661819458e-02
-4.025610536336898804e-02
-4.459141939878463745e-02
-3.925539553165435791e-02
-3.266162425279617310e-02
-3.377512097358703613e-02
-6.362106651067733765e-02
-7.490503787994384766e-02
-8.082301169633865356e-02
-6.745684146881103516e-02
-7.124671339988708496e-02
-5.618480965495109558e-02
-6.614002585411071777e-02
-5.257569998502731323e-02
-9.844322502613067627e-02
-1.323443502187728882e-01
-9.957776218652725220e-02
-9.626854211091995239e-02
-8.576125651597976685e-02
-9.797263145446777344e-02
-1.104187592864036560e-01
-1.055072620511054993e-01
-1.321267485618591309e-01
-1.416405290365219116e-01
-1.223563775420188904e-01
-1.210499927401542664e-01
-1.177924796938896179e-01
-1.427474766969680786e-01
-1.587174832820892334e-01
-1.512593626976013184e-01
-1.462911516427993774e-01
-1.536477506160736084e-01
-1.509516239166259766e-01
-1.378222405910491943e-01
-1.568432152271270752e-01
-1.928920894861221313e-01
-2.059437930583953857e-01
-1.759134978055953979e-01
-1.725334823131561279e-01
-1.832658946514129639e-01
-1.859114170074462891e-01
-1.794102638959884644e-01
-1.502457559108734131e-01
-1.697144508361816406e-01
-1.821340918540954590e-01
-1.837052404880523682e-01
-2.063893228769302368e-01
-2.325433343648910522e-01
-2.132224738597869873e-01
-2.292961329221725464e-01
-1.997644007205963135e-01
-1.972892135381698608e-01
-2.618163228034973145e-01
-2.697259485721588135e-01
-2.419091165065765381e-01
-2.409113496541976929e-01
-2.457374334335327148e-01
-5.843896418809890747e-02
-9.032385051250457764e-02
9.381996095180511475e-02
1.176423951983451843e-01
2.031036764383316040e-01
1.979050785303115845e-01
2.411219328641891479e-01
2.703622281551361084e-01
2.585504949092864990e-01
2.848581075668334961e-01
2.916640341281890869e-01
2.795239686965942383e-01
3.022129833698272705e-01
3.134820163249969482e-01
-2.959009110927581787e-01
-2.957041859626770020e-01
-3.119689226150512695e-01
-2.698377668857574463e-01
-2.677954137325286865e-01
-2.455563098192214966e-01
-2.464543581008911133e-01
-2.518534064292907715e-01
-2.426653504371643066e-01
-2.319698184728622437e-01
-2.341758608818054199e-01
-2.306937277317047119e-01
-2.317872643470764160e-01
-2.082535624504089355e-01
2.857421934604644775e-01
-1.997853070497512817e-01
2.742688655853271484e-01
2.529938817024230957e-01
2.417248934507369995e-01
2.417849451303482056e-01
2.258689105510711670e-01
2.054844349622726440e-01
2.162636518478393555e-01
2.060473412275314331e-01
1.980732232332229614e-01
2.048822343349456787e-01
1.864038705825805664e-01
1.714298874139785767e-01
1.665532141923904419e-01
-1.043927520513534546e-01
1.328031271696090698e-01
-1.548242717981338501e-01
-1.560880243778228760e-01
-1.358679831027984619e-01
-1.086862608790397644e-01
-1.235804557800292969e-01
-8.873824030160903931e-02
-1.144811511039733887e-01
-9.319405257701873779e-02
1.553381383419036865e-01
1.504794955253601074e-01
-2.528350241482257843e-02
-3.923895210027694702e-02
1.497771590948104858e-01
1.317720562219619751e-01
9.562368690967559814e-02
1.502256542444229126e-01
4.452264402061700821e-03
1.381825059652328491e-01
1.490968912839889526e-01
1.522958725690841675e-01
1.485011726617813110e-01
-1.095279864966869354e-02
-1.355524640530347824e-02
1.358329653739929199e-01
1.418582648038864136e-01
-2.021380141377449036e-02
-6.436941027641296387e-02
-3.530024737119674683e-02
-5.167908966541290283e-02
-6.161905825138092041e-02
1.433656550943851471e-02
2.828832566738128662e-01
-2.950065955519676208e-02
2.196272760629653931e-01
2.394449114799499512e-01
2.613823115825653076e-01
2.591978609561920166e-01
2.505285739898681641e-01
2.850012183189392090e-01
3.080348372459411621e-01
3.009088039398193359e-01
3.407043218612670898e-01
3.249199688434600830e-01
-6.062708795070648193e-03
-6.649915874004364014e-02
-7.045044749975204468e-02
-1.002466008067131042e-01
3.818490207195281982e-01
3.787696063518524170e-01
3.760608732700347900e-01
3.864018321037292480e-01
3.662317395210266113e-01
3.776769340038299561e-01
3.832432329654693604e-01
3.788743615150451660e-01
3.739109337329864502e-01
3.709259033203125000e-01
3.643395006656646729e-01
3.584645390510559082e-01
3.758741617202758789e-01
3.841750025749206543e-01
3.774487078189849854e-01
3.813489377498626709e-01
1.593882143497467041e-01
3.618872463703155518e-01
3.731498420238494873e-01
3.642126917839050293e-01
3.828665316104888916e-01
3.687738478183746338e-01
3.750172555446624756e-01
3.793019056320190430e-01
3.302462995052337646e-01
3.644826114177703857e-01
3.582237064838409424e-01
3.511046171188354492e-01
3.744468688964843750e-01
3.336623907089233398e-01
3.503269255161285400e-01
3.590378165245056152e-01
3.500943779945373535e-01
3.459329605102539062e-01
3.608821034431457520e-01
3.692495822906494141e-01
3.541319370269775391e-01
3.562901914119720459e-01
3.478612601757049561e-01
3.419799804687500000e-01
3.437758386135101318e-01
3.385351896286010742e-01
3.575151264667510986e-01
3.341333270072937012e-01
3.295828104019165039e-01
3.329383730888366699e-01
3.312950730323791504e-01
3.269123435020446777e-01
3.361591994762420654e-01
3.260670900344848633e-01
3.330764770507812500e-01
3.031737208366394043e-01
3.031746447086334229e-01
3.207702338695526123e-01
3.081105947494506836e-01
3.158315122127532959e-01
2.995300292968750000e-01
3.078016042709350586e-01
2.926931977272033691e-01
2.910928726196289062e-01
3.048897385597229004e-01
3.059616982936859131e-01
2.830294370651245117e-01
2.585395276546478271e-01
2.712982594966888428e-01
2.723618149757385254e-01
2.670535147190093994e-01
2.647940516471862793e-01
2.717929780483245850e-01
2.711919248104095459e-01
2.573908567428588867e-01
2.346663475036621094e-01
2.576928734779357910e-01
2.589196264743804932e-01
2.557151615619659424e-01
2.469446957111358643e-01
2.333152741193771362e-01
2.284272015094757080e-01
2.220795899629592896e-01
1.979534327983856201e-01
2.010133117437362671e-01
2.160531878471374512e-01
1.988913565874099731e-01
1.964155286550521851e-01
2.079422324895858765e-01
1.996983140707015991e-01
1.790145188570022583e-01
1.774481087923049927e-01
1.734976470470428467e-01
1.777486354112625122e-01
1.764258593320846558e-01
1.667743772268295288e-01
1.700865924358367920e-01
1.747130602598190308e-01
1.622343808412551880e-01
1.536502540111541748e-01
1.382284611463546753e-01
1.444677710533142090e-01
1.531190127134323120e-01
1.433913707733154297e-01
1.430259644985198975e-01
1.474037021398544312e-01
1.314103603363037109e-01
1.210138872265815735e-01
1.157822906970977783e-01
1.197381690144538879e-01
1.192516237497329712e-01
1.158093884587287903e-01
1.101410686969757080e-01
1.134961545467376709e-01
9.798406809568405151e-02
9.058663994073867798e-02
8.220285177230834961e-02
9.006071835756301880e-02
9.221609681844711304e-02
8.117578178644180298e-02
8.412363380193710327e-02
8.303751796483993530e-02
6.942578405141830444e-02
6.684898585081100464e-02
6.222034245729446411e-02
6.772302091121673584e-02
6.452374160289764404e-02
6.553478538990020752e-02
6.296296417713165283e-02
5.850841850042343140e-02
5.826982483267784119e-02
5.555104091763496399e-02
5.054973810911178589e-02
4.510101675987243652e-02
4.638588801026344299e-02
4.931700229644775391e-02
5.175380036234855652e-02
4.473722726106643677e-02
4.656254872679710388e-02
5.075661838054656982e-02
5.157506093382835388e-02
4.447405785322189331e-02
3.630948066711425781e-02
3.827068209648132324e-02
4.078489542007446289e-02
3.050421364605426788e-02
3.559173643589019775e-02
4.266811162233352661e-02
3.932992741465568542e-02
3.157025203108787537e-02
2.650853060185909271e-02
2.578074485063552856e-02
3.095329552888870239e-02
3.806457668542861938e-02
2.489754743874073029e-02
3.629893064498901367e-02
2.601158246397972107e-02
1.314822304993867874e-02
1.145161408931016922e-02
1.240544579923152924e-02
1.506865303963422775e-02
2.312802337110042572e-02
-7.568569853901863098e-04
1.758023723959922791e-02
1.669228449463844299e-02
-4.090839065611362457e-04
1.660272851586341858e-02
6.944560445845127106e-03
-1.969153806567192078e-02
2.063746377825737000e-02
1.144225057214498520e-02
-3.875602781772613525e-02
-3.627303615212440491e-02
-2.782901190221309662e-02
-3.815225139260292053e-02
-1.585874520242214203e-02
2.396938949823379517e-02
-1.190486550331115723e-02
1.496155466884374619e-02
-1.747806742787361145e-02
-1.355829834938049316e-01
-2.654971368610858917e-02
-3.872371464967727661e-02
-1.580126285552978516e-01
-1.355490684509277344e-01
-1.263685524463653564e-01
-9.581329673528671265e-02
-2.143715471029281616e-01
-2.204740792512893677e-01
-2.489417344331741333e-01
-2.453565448522567749e-01
-2.678571045398712158e-01
-2.458498626947402954e-01
-2.515702843666076660e-01
-2.496428340673446655e-01
-3.034740984439849854e-01
2.014809250831604004e-01
-2.492870986461639404e-01
2.568266689777374268e-01
2.842968404293060303e-01
2.938297688961029053e-01
2.943092584609985352e-01
2.918578684329986572e-01
2.622437775135040283e-01
2.657163441181182861e-01
2.709799706935882568e-01
2.687747776508331299e-01
2.744270265102386475e-01
2.581781446933746338e-01
2.848456501960754395e-01
2.758924663066864014e-01
2.845245599746704102e-01
-2.218644618988037109e-01
-1.370925158262252808e-01
-1.919017285108566284e-01
-1.761939078569412231e-01
-1.543462723493576050e-01
-1.601293236017227173e-01
-1.414051502943038940e-01
-1.133523881435394287e-01
-1.045915409922599792e-01
-4.370766878128051758e-02
2.300895601511001587e-01
2.816735506057739258e-01
2.035337388515472412e-01
1.768754571676254272e-01
2.018118649721145630e-01
2.117938250303268433e-01
1.791833043098449707e-01
-1.346114836633205414e-02
2.055393010377883911e-01
2.254317849874496460e-01
2.218496948480606079e-01
-3.024520911276340485e-02
1.773322820663452148e-01
1.792297214269638062e-01
1.636700928211212158e-01
1.838763356208801270e-01
1.558743268251419067e-01
1.605376452207565308e-01
1.262363195419311523e-01
1.389567404985427856e-01
1.486260890960693359e-01
1.194693148136138916e-01
1.391637176275253296e-01
2.171653211116790771e-01
-1.942203938961029053e-02
-4.005264863371849060e-02
1.571960188448429108e-02
-4.497609101235866547e-03
-1.500959694385528564e-02
-5.733812600374221802e-02
1.612393185496330261e-02
1.838560998439788818e-01
1.707880571484565735e-02
2.732906639575958252e-01
2.650985866785049438e-02
7.245205342769622803e-02
-3.541659563779830933e-02
2.785409390926361084e-01
2.792625427246093750e-01
2.818745672702789307e-01
2.941099405288696289e-01
2.623520195484161377e-01
2.843083441257476807e-01
2.853146195411682129e-01
2.850830256938934326e-01
3.302051126956939697e-01
3.256833553314208984e-01
3.262857496738433838e-01
3.444474935531616211e-01
3.688548803329467773e-01
1.782886385917663574e-01
5.535430088639259338e-02
9.013692289590835571e-02
3.764765262603759766e-01
3.892694711685180664e-01
2.505425810813903809e-01
3.590074181556701660e-01
3.847032189369201660e-01
3.895289599895477295e-01
3.831486105918884277e-01
3.797625005245208740e-01
3.859213888645172119e-01
3.922233283519744873e-01
3.808853328227996826e-01
3.712534904479980469e-01
3.887124061584472656e-01
3.757438957691192627e-01
3.416889011859893799e-01
3.727743327617645264e-01
3.810263872146606445e-01
3.724995255470275879e-01
3.644691705703735352e-01
3.608148694038391113e-01
3.788021802902221680e-01
3.807287514209747314e-01
3.768679499626159668e-01
3.796291351318359375e-01
3.729480504989624023e-01
3.745779097080230713e-01
3.748453557491302490e-01
3.828821182250976562e-01
3.789649009704589844e-01
3.743439614772796631e-01
3.564131557941436768e-01
3.773904442787170410e-01
3.816483914852142334e-01
3.798431754112243652e-01
3.809286653995513916e-01
3.768205344676971436e-01
3.709036409854888916e-01
3.797435760498046875e-01
3.781895935535430908e-01
3.815448880195617676e-01
3.790289461612701416e-01
3.722472786903381348e-01
3.720026314258575439e-01
3.588163852691650391e-01
3.764493167400360107e-01
3.645250499248504639e-01
3.746998906135559082e-01
3.850763738155364990e-01
3.791922926902770996e-01
3.752475976943969727e-01
3.460085093975067139e-01
3.705500364303588867e-01
3.675472438335418701e-01
3.739757835865020752e-01
3.851695060729980469e-01
3.660342395305633545e-01
3.430967926979064941e-01
3.537331521511077881e-01
3.252903521060943604e-01
3.452042043209075928e-01
3.250190019607543945e-01
3.450706005096435547e-01
3.575570583343505859e-01
3.292489051818847656e-01
3.357601165771484375e-01
3.129779994487762451e-01
3.341744840145111084e-01
2.869624197483062744e-01
2.907064855098724365e-01
3.132365345954895020e-01
3.177358806133270264e-01
2.932542264461517334e-01
2.867636084556579590e-01
2.705461382865905762e-01
2.660765945911407471e-01
2.739174067974090576e-01
2.569634914398193359e-01
2.633382081985473633e-01
2.811108529567718506e-01
2.534550428390502930e-01
2.533760070800781250e-01
2.144756317138671875e-01
2.316157966852188110e-01
2.334624528884887695e-01
2.201756983995437622e-01
2.237724810838699341e-01
2.302511632442474365e-01
2.153518646955490112e-01
1.865935623645782471e-01
1.663338243961334229e-01
1.685713827610015869e-01
2.026387900114059448e-01
1.600599437952041626e-01
1.651061177253723145e-01
1.701897084712982178e-01
1.576156318187713623e-01
1.391119807958602905e-01
1.269709467887878418e-01
1.305783838033676147e-01
1.389369666576385498e-01
1.411567926406860352e-01
1.220689192414283752e-01
1.189432293176651001e-01
1.091241464018821716e-01
1.049895957112312317e-01
9.554639458656311035e-02
1.061506643891334534e-01
1.166487038135528564e-01
1.031055748462677002e-01
1.083853468298912048e-01
1.080145463347434998e-01
9.538984298706054688e-02
8.834276348352432251e-02
7.764044404029846191e-02
9.255280345678329468e-02
1.001955345273017883e-01
7.866643369197845459e-02
8.553568273782730103e-02
7.591161131858825684e-02
7.880994677543640137e-02
7.802174240350723267e-02
6.380805373191833496e-02
7.516928017139434814e-02
6.827725470066070557e-02
4.869038239121437073e-02
4.779020696878433228e-02
4.139737784862518311e-02
3.867340087890625000e-02
4.699130728840827942e-02
3.110376559197902679e-02
2.112639509141445160e-02
9.433606639504432678e-03
1.116915326565504074e-02
1.862421445548534393e-02
2.478955872356891632e-02
1.351196877658367157e-02
1.349428296089172363e-02
3.616366535425186157e-03
-7.826769724488258362e-03
-3.018143959343433380e-02
-2.518886141479015350e-02
2.434741239994764328e-03
6.238467991352081299e-03
-8.787874132394790649e-03
-3.385972604155540466e-02
-3.172953799366950989e-02
-5.444460734724998474e-02
-4.802270978689193726e-02
-3.584370762109756470e-02
-3.975417837500572205e-02
-3.114428371191024780e-02
-5.582921952009201050e-02
-5.133721977472305298e-02
-6.231584399938583374e-02
-8.643775433301925659e-02
-8.614548295736312866e-02
-6.561320275068283081e-02
-4.739483818411827087e-02
-8.750778436660766602e-02
-8.892412483692169189e-02
-8.659718185663223267e-02
-7.146418094635009766e-02
-7.468320429325103760e-02
-8.757829666137695312e-02
-6.263787299394607544e-02
-4.788170754909515381e-02
-8.310961723327636719e-02
-1.083328500390052795e-01
-1.011070013046264648e-01
-1.030579656362533569e-01
-7.101975381374359131e-02
-1.371154487133026123e-01
-1.199869811534881592e-01
-1.263558417558670044e-01
-1.426188498735427856e-01
-1.890915930271148682e-01
-1.772605478763580322e-01
-1.929168701171875000e-01
-1.832215338945388794e-01
-1.853313595056533813e-01
-2.014807164669036865e-01
-8.762466162443161011e-02
-1.739752292633056641e-01
-1.859605461359024048e-01
-2.438692450523376465e-01
4.402268305420875549e-02
1.586686074733734131e-02
6.051262095570564270e-02
1.275980323553085327e-01
1.105942055583000183e-01
1.519387066364288330e-01
1.519850939512252808e-01
1.524554491043090820e-01
-8.783441781997680664e-02
1.285948902368545532e-01
-2.211642265319824219e-01
-2.858513593673706055e-01
-2.109282761812210083e-01
-2.714447379112243652e-01
-3.141513466835021973e-01
-3.233380317687988281e-01
-3.105951547622680664e-01
-3.213513791561126709e-01
-3.356314301490783691e-01
-3.472290039062500000e-01
-3.478136658668518066e-01
-3.405649960041046143e-01
-3.234987854957580566e-01
-3.334651291370391846e-01
2.495970427989959717e-01
-3.311868906021118164e-01
-1.952665001153945923e-01
3.436814248561859131e-01
3.249430358409881592e-01
3.423126935958862305e-01
3.504227995872497559e-01
-3.068800866603851318e-01
3.463570177555084229e-01
3.454390168190002441e-01
3.460800349712371826e-01
3.572130203247070312e-01
3.436584472656250000e-01
3.329176902770996094e-01
3.278966844081878662e-01
3.284313678741455078e-01
3.158810436725616455e-01
-1.523203402757644653e-01
-3.498650789260864258e-01
2.640177905559539795e-01
3.414685726165771484e-01
3.119265735149383545e-01
2.871268093585968018e-01
-2.636917531490325928e-01
3.404008150100708008e-01
3.247432708740234375e-01
-7.603541016578674316e-02
-1.166045814752578735e-01
1.029053553938865662e-01
-7.374264299869537354e-02
7.534833159297704697e-03
-2.490624412894248962e-02
2.955570518970489502e-01
2.678507268428802490e-01
2.235372066497802734e-01
1.829014569520950317e-01
1.835706084966659546e-01
2.174472808837890625e-01
1.804517507553100586e-01
2.153645157814025879e-01
2.146727144718170166e-01
2.292979806661605835e-01
2.355660796165466309e-01
2.269860208034515381e-01
2.373806089162826538e-01
2.487467676401138306e-01
2.499683201313018799e-01
2.565356791019439697e-01
2.634752094745635986e-01
2.631356418132781982e-01
2.525105178356170654e-01
2.611410021781921387e-01
2.694204747676849365e-01
2.695275843143463135e-01
2.719675004482269287e-01
2.721639871597290039e-01
2.858155667781829834e-01
2.859430015087127686e-01
2.845119535923004150e-01
3.032751679420471191e-01
3.114361166954040527e-01
3.001357018947601318e-01
3.105561733245849609e-01
3.228102624416351318e-01
3.225762248039245605e-01
3.264398276805877686e-01
3.379257023334503174e-01
3.509903550148010254e-01
3.258467614650726318e-01
3.534361124038696289e-01
3.625960946083068848e-01
3.667485117912292480e-01
3.524753749370574951e-01
3.538823425769805908e-01
3.726257085800170898e-01
3.547708690166473389e-01
3.356361985206604004e-01
3.578360378742218018e-01
3.342748880386352539e-01
3.460874855518341064e-01
3.377542197704315186e-01
3.476621806621551514e-01
3.559844791889190674e-01
3.514898121356964111e-01
3.469914495944976807e-01
3.480948805809020996e-01
3.402299582958221436e-01
3.470181822776794434e-01
3.360984921455383301e-01
3.324575722217559814e-01
3.367189466953277588e-01
3.459974229335784912e-01
3.360526263713836670e-01
3.451211154460906982e-01
3.461889624595642090e-01
3.465335965156555176e-01
3.506039679050445557e-01
3.455336093902587891e-01
3.262198269367218018e-01
3.179852664470672607e-01
3.080578446388244629e-01
3.317844867706298828e-01
3.381277024745941162e-01
3.376888036727905273e-01
3.336406946182250977e-01
3.227156996726989746e-01
3.250461816787719727e-01
3.174735307693481445e-01
3.092925548553466797e-01
3.159012496471405029e-01
3.148362338542938232e-01
3.105879426002502441e-01
3.121990561485290527e-01
3.145034015178680420e-01
3.362529277801513672e-01
3.073162734508514404e-01
3.215615451335906982e-01
3.147684633731842041e-01
3.097070753574371338e-01
3.170447349548339844e-01
3.401046395301818848e-01
3.485779464244842529e-01
3.067701160907745361e-01
3.374440073966979980e-01
2.259885817766189575e-01
-4.917291551828384399e-02
3.301384150981903076e-01
-1.035346314311027527e-01
-3.448040485382080078e-01
-3.398386836051940918e-01
-3.418455421924591064e-01
-3.383743464946746826e-01
-3.636615574359893799e-01
-1.482543945312500000e-01
-3.500728011131286621e-01
-3.190489411354064941e-01
3.359194695949554443e-01
3.544410467147827148e-01
3.664496541023254395e-01
-5.094470828771591187e-02
3.825410604476928711e-01
3.793711960315704346e-01
3.872702121734619141e-01
3.778797686100006104e-01
3.752005994319915771e-01
3.221918344497680664e-01
3.721038997173309326e-01
3.800091743469238281e-01
3.771808147430419922e-01
-3.456151783466339111e-01
-3.531717956066131592e-01
3.866166174411773682e-01
-1.681220978498458862e-01
-1.827770769596099854e-01
-2.696703374385833740e-01
-3.027561008930206299e-01
-2.361274659633636475e-01
-6.675798445940017700e-02
-1.128867194056510925e-01
3.775264322757720947e-01
-3.526991978287696838e-02
3.745713531970977783e-01
3.130581676959991455e-01
2.489758878946304321e-01
2.456004172563552856e-01
1.993493139743804932e-01
1.092847138643264771e-01
1.139776334166526794e-01
8.379948139190673828e-02
1.144053190946578979e-01
1.811579018831253052e-01
1.554594635963439941e-01
1.317798793315887451e-01
1.665455400943756104e-01
1.608259677886962891e-01
1.641846746206283569e-01
1.331149637699127197e-01
1.530079245567321777e-01
1.655547618865966797e-01
1.446159183979034424e-01
1.210186034440994263e-01
1.417366713285446167e-01
1.492018848657608032e-01
1.431377679109573364e-01
1.414012312889099121e-01
1.408168226480484009e-01
1.314333081245422363e-01
1.193970069289207458e-01
1.354314535856246948e-01
1.375169306993484497e-01
1.405642181634902954e-01
1.289811581373214722e-01
1.315035372972488403e-01
1.071203649044036865e-01
1.251317411661148071e-01
1.447473615407943726e-01
1.329058110713958740e-01
1.424020230770111084e-01
1.527175605297088623e-01
1.377972811460494995e-01
1.260023564100265503e-01
2.132785320281982422e-01
2.034014016389846802e-01
2.095869928598403931e-01
2.281964868307113647e-01
2.507068216800689697e-01
2.349753230810165405e-01
2.114430814981460571e-01
2.167140096426010132e-01
2.329743355512619019e-01
2.136518508195877075e-01
2.104350924491882324e-01
2.337675392627716064e-01
2.313478887081146240e-01
2.158874124288558960e-01
2.224827557802200317e-01
1.996699124574661255e-01
1.961462348699569702e-01
1.999805569648742676e-01
2.388325184583663940e-01
2.072048038244247437e-01
2.227752655744552612e-01
2.183518111705780029e-01
2.028997093439102173e-01
8.579412847757339478e-02
1.334554404020309448e-01
-2.292260760441422462e-03
-1.592636704444885254e-01
1.603100299835205078e-01
1.717164516448974609e-01
1.519706398248672485e-01
1.490178555250167847e-01
3.439947590231895447e-02
6.553030014038085938e-02
-5.638119578361511230e-02
1.473706364631652832e-01
1.122148633003234863e-01
1.423349231481552124e-01
9.681482613086700439e-02
9.628653526306152344e-02
4.901726171374320984e-02
6.450891494750976562e-02
-4.851774126291275024e-02
7.991846650838851929e-03
3.959531337022781372e-02
-4.983411729335784912e-02
1.224592700600624084e-02
-2.806726098060607910e-02
2.938858419656753540e-02
-1.534533128142356873e-02
1.600575074553489685e-02
-4.712428525090217590e-02
2.388800680637359619e-02
-1.721329614520072937e-02
1.566588878631591797e-02
1.191028393805027008e-02
1.822248287498950958e-02
-9.306283667683601379e-03
-3.249721229076385498e-02
-1.727838627994060516e-02
-1.219713874161243439e-02
5.730512551963329315e-03
1.298987306654453278e-02
3.136929124593734741e-02
6.625065580010414124e-04
-6.699055898934602737e-03
-3.903267160058021545e-02
-3.718701377511024475e-02
-1.111812982708215714e-02
-7.709255907684564590e-03
1.186819467693567276e-02
-5.109580233693122864e-04
-2.008550800383090973e-04
-3.219847381114959717e-02
-3.138940408825874329e-02
-3.245881199836730957e-02
-2.567262016236782074e-02
-5.257749464362859726e-03
-1.358850486576557159e-02
-4.076572135090827942e-03
-2.847029082477092743e-02
-3.530187904834747314e-02
-2.986124157905578613e-02
-3.766974061727523804e-02
-2.229621261358261108e-02
-1.987430639564990997e-02
-2.209044434130191803e-02
-3.793279081583023071e-02
-5.008580908179283142e-02
-6.791641563177108765e-02
-7.074274867773056030e-02
-4.488786309957504272e-02
-4.338302463293075562e-02
-3.770521655678749084e-02
-4.436044022440910339e-02
-4.674488678574562073e-02
-5.720184743404388428e-02
-7.892803102731704712e-02
-7.251861691474914551e-02
-5.856543034315109253e-02
-5.917276814579963684e-02
-7.111339271068572998e-02
-7.308649271726608276e-02
-6.383866071701049805e-02
-6.299701333045959473e-02
-8.613648265600204468e-02
-7.954082638025283813e-02
-5.477708578109741211e-02
-4.837375879287719727e-02
-5.527492240071296692e-02
-6.533470749855041504e-02
-5.358636006712913513e-02
-6.950095295906066895e-02
-5.151393264532089233e-02
-6.450322270393371582e-02
-4.351625591516494751e-02
-5.564127862453460693e-02
-5.959171429276466370e-02
-7.520782947540283203e-02
-8.277251571416854858e-02
-5.909097567200660706e-02
-5.303221195936203003e-02
-8.126241154968738556e-04
-2.128834649920463562e-02
-3.206319361925125122e-02
-6.027232110500335693e-02
-8.772850781679153442e-02
-7.909880578517913818e-02
-5.356012284755706787e-02
-3.040787577629089355e-02
1.829555258154869080e-02
5.115948989987373352e-02
2.247831039130687714e-02
4.803156852722167969e-02
4.199455678462982178e-02
-5.189760122448205948e-03
-7.114242296665906906e-03
4.473480582237243652e-02
-2.032128870487213135e-01
-1.617069840431213379e-01
-1.018287837505340576e-01
-1.511519849300384521e-01
-2.055918574333190918e-01
-2.415368407964706421e-01
-2.560782730579376221e-01
-2.161557823419570923e-01
-2.482609450817108154e-01
-2.817813456058502197e-01
-3.083876669406890869e-01
-2.890767455101013184e-01
-3.201401829719543457e-01
-3.023684024810791016e-01
6.681320816278457642e-02
-2.937429845333099365e-01
-2.898690700531005859e-01
2.005328983068466187e-01
2.231977581977844238e-01
1.893545128405094147e-02
2.995073497295379639e-01
2.731735706329345703e-01
2.965935170650482178e-01
3.115284144878387451e-01
3.202050626277923584e-01
2.823945879936218262e-01
3.231534063816070557e-01
2.841920256614685059e-01
3.215739428997039795e-01
-1.640651226043701172e-01
3.476316630840301514e-01
-3.193403780460357666e-01
-3.078805804252624512e-01
-3.277260661125183105e-01
-3.124105334281921387e-01
-3.045752644538879395e-01
-2.939796149730682373e-01
-2.882921397686004639e-01
-1.436743736267089844e-01
3.197865188121795654e-01
3.125618696212768555e-01
3.237657546997070312e-01
1.656270772218704224e-01
2.388815879821777344e-01
2.762212157249450684e-01
2.521764039993286133e-01
2.772670984268188477e-01
-4.577637463808059692e-02
-5.380984395742416382e-02
3.527741730213165283e-01
-3.606886789202690125e-02
-1.311659812927246094e-01
-1.388715505599975586e-01
-9.265572577714920044e-02
2.947309911251068115e-01
2.746959030628204346e-01
2.213267087936401367e-01
1.979075521230697632e-01
1.534140706062316895e-01
8.336421102285385132e-02
1.074014678597450256e-01
1.091350764036178589e-01
9.909052401781082153e-02
9.915316849946975708e-02
1.350249499082565308e-01
9.566802531480789185e-02
9.031868726015090942e-02
7.932411879301071167e-02
1.091348230838775635e-01
1.647106558084487915e-01
1.215319335460662842e-01
1.395483016967773438e-01
1.338375657796859741e-01
4.255255311727523804e-02
5.486040562391281128e-02
1.567323692142963409e-02
2.650988847017288208e-02
1.576841250061988831e-02
9.681583940982818604e-02
1.623720228672027588e-01
1.629919558763504028e-01
2.061710953712463379e-01
1.942763775587081909e-01
2.439773380756378174e-01
2.754956185817718506e-01
2.377117723226547241e-01
3.066174089908599854e-01
3.248451650142669678e-01
3.348249793052673340e-01
3.237563669681549072e-01
3.567564189434051514e-01
3.531808853149414062e-01
3.650291264057159424e-01
3.791117966175079346e-01
3.980730473995208740e-01
3.683150112628936768e-01
3.598254919052124023e-01
3.618173301219940186e-01
3.886266350746154785e-01
3.843985497951507568e-01
3.747794330120086670e-01
3.827459812164306641e-01
3.659635484218597412e-01
3.373506665229797363e-01
3.310122787952423096e-01
3.410349488258361816e-01
3.565231263637542725e-01
3.289286196231842041e-01
3.245096504688262939e-01
3.186317086219787598e-01
3.379470705986022949e-01
3.373349308967590332e-01
3.327909111976623535e-01
3.220234215259552002e-01
3.324932157993316650e-01
3.111267685890197754e-01
2.850940227508544922e-01
3.156103491783142090e-01
3.065944314002990723e-01
3.112903833389282227e-01
3.006649911403656006e-01
2.998001277446746826e-01
3.009597361087799072e-01
3.143487870693206787e-01
2.940968573093414307e-01
3.058983385562896729e-01
2.933456003665924072e-01
2.959302961826324463e-01
2.904523909091949463e-01
2.693625986576080322e-01
2.742720246315002441e-01
2.705029249191284180e-01
2.794497013092041016e-01
2.748890817165374756e-01
2.712936997413635254e-01
2.616406083106994629e-01
2.782843410968780518e-01
2.617517113685607910e-01
2.684086561203002930e-01
2.729047834873199463e-01
2.610006332397460938e-01
2.555586397647857666e-01
2.582263648509979248e-01
2.653672695159912109e-01
2.491957843303680420e-01
2.382206618785858154e-01
2.474149912595748901e-01
2.600636184215545654e-01
2.459231764078140259e-01
2.467584609985351562e-01
2.235002219676971436e-01
2.365543246269226074e-01
2.361050546169281006e-01
2.225547134876251221e-01
2.306541800498962402e-01
2.355720698833465576e-01
2.353040575981140137e-01
2.280020862817764282e-01
2.100750058889389038e-01
2.138822525739669800e-01
2.213795632123947144e-01
2.125563472509384155e-01
2.099998891353607178e-01
2.148818671703338623e-01
2.069347798824310303e-01
2.096805125474929810e-01
2.019846588373184204e-01
2.053356766700744629e-01
2.120493948459625244e-01
2.027627676725387573e-01
2.032195776700973511e-01
1.966925114393234253e-01
2.013400346040725708e-01
1.986242085695266724e-01
1.906653791666030884e-01
1.949863582849502563e-01
1.916768997907638550e-01
1.874926239252090454e-01
1.903534978628158569e-01
1.910173594951629639e-01
1.943989694118499756e-01
1.868201792240142822e-01
1.777192354202270508e-01
1.827292442321777344e-01
1.785575896501541138e-01
1.647967100143432617e-01
1.671464890241622925e-01
1.679729521274566650e-01
1.604278087615966797e-01
1.719082444906234741e-01
1.669843494892120361e-01
1.747061312198638916e-01
1.681457012891769409e-01
1.599095314741134644e-01
1.583563536405563354e-01
1.571800112724304199e-01
1.620435267686843872e-01
1.587810516357421875e-01
1.641889959573745728e-01
1.641730070114135742e-01
1.545252054929733276e-01
1.403100490570068359e-01
1.466872394084930420e-01
1.667088568210601807e-01
1.481336802244186401e-01
1.450220793485641479e-01
1.494636386632919312e-01
1.328657567501068115e-01
1.180757805705070496e-01
1.616200506687164307e-01
1.307267248630523682e-01
1.566575318574905396e-01
1.748411059379577637e-01
8.660097420215606689e-02
7.394858449697494507e-02
9.149283170700073242e-02
7.263948023319244385e-02
4.376858472824096680e-02
3.531685844063758850e-02
3.203110396862030029e-02
2.299761772155761719e-02
2.421320881694555283e-03
7.831262797117233276e-02
7.747587561607360840e-02
4.533769562840461731e-02
-7.365414407104253769e-03
-1.511666774749755859e-01
-4.563177004456520081e-02
-1.477333903312683105e-01
-2.548126876354217529e-01
-3.244615197181701660e-01
-2.939661443233489990e-01
-3.572652041912078857e-01
-3.617958724498748779e-01
-6.758774816989898682e-02
-3.353062272071838379e-01
-3.172913491725921631e-01
2.212457358837127686e-01
3.626154065132141113e-01
3.770093917846679688e-01
3.790509998798370361e-01
3.872617483139038086e-01
3.900672495365142822e-01
3.977711498737335205e-01
3.872556984424591064e-01
3.950052857398986816e-01
3.839428722858428955e-01
3.792354464530944824e-01
3.838473558425903320e-01
3.798408210277557373e-01
3.885414600372314453e-01
3.884719610214233398e-01
3.879719376564025879e-01
3.808267414569854736e-01
-3.655320405960083008e-01
3.952689468860626221e-01
3.897808492183685303e-01
-1.169738098978996277e-01
-3.097210824489593506e-01
-2.763752937316894531e-01
-2.891749143600463867e-01
-7.971401512622833252e-02
-6.051187589764595032e-02
3.509873747825622559e-01
1.390921920537948608e-01
3.493335247039794922e-01
3.520881235599517822e-01
3.228348791599273682e-01
1.260952800512313843e-01
3.146971762180328369e-01
2.986754775047302246e-01
2.727268934249877930e-01
2.551029026508331299e-01
2.778709828853607178e-01
2.834350168704986572e-01
2.687232792377471924e-01
2.745772004127502441e-01
3.009500801563262939e-01
3.429500460624694824e-01
3.071011602878570557e-01
3.090775907039642334e-01
3.201400935649871826e-01
3.134288489818572998e-01
3.278775513172149658e-01
3.361261188983917236e-01
3.416486978530883789e-01
3.305856883525848389e-01
3.318190276622772217e-01
3.308050632476806641e-01
3.328789472579956055e-01
3.376521468162536621e-01
3.341916203498840332e-01
3.317123949527740479e-01
3.305760920047760010e-01
3.316404819488525391e-01
3.365216553211212158e-01
3.410521149635314941e-01
3.407591879367828369e-01
3.430247306823730469e-01
3.414835333824157715e-01
3.414277136325836182e-01
3.461132645606994629e-01
3.434924781322479248e-01
3.403381705284118652e-01
3.384843170642852783e-01
3.366664946079254150e-01
3.336795568466186523e-01
3.448345959186553955e-01
3.524582087993621826e-01
3.577568829059600830e-01
3.419290184974670410e-01
3.543505370616912842e-01
3.679509460926055908e-01
3.442097902297973633e-01
3.612017631530761719e-01
3.563915193080902100e-01
3.557932674884796143e-01
3.529339134693145752e-01
3.530240952968597412e-01
3.639596998691558838e-01
3.594433963298797607e-01
3.527906239032745361e-01
3.515017330646514893e-01
3.411725461483001709e-01
3.113173246383666992e-01
3.444805145263671875e-01
3.455070853233337402e-01
3.430242240428924561e-01
3.451826870441436768e-01
3.343698084354400635e-01
3.306812942028045654e-01
3.301735520362854004e-01
3.220120072364807129e-01
3.195508718490600586e-01
3.227978646755218506e-01
3.064358830451965332e-01
3.193202912807464600e-01
2.952067255973815918e-01
3.295162320137023926e-01
3.105699419975280762e-01
3.326903879642486572e-01
3.333511650562286377e-01
3.306404650211334229e-01
3.252900242805480957e-01
3.037144839763641357e-01
3.049624264240264893e-01
2.928185164928436279e-01
2.917867898941040039e-01
2.970938384532928467e-01
2.965047955513000488e-01
3.119500577449798584e-01
3.037315607070922852e-01
2.950998246669769287e-01
3.186814188957214355e-01
3.055554032325744629e-01
2.854492366313934326e-01
3.016311228275299072e-01
2.530366480350494385e-01
2.357960045337677002e-01
2.342552095651626587e-01
2.655718326568603516e-01
2.350292652845382690e-01
2.748154699802398682e-01
2.389075160026550293e-01
3.357182145118713379e-01
3.595123589038848877e-01
3.675681948661804199e-01
3.856718242168426514e-01
3.802969157695770264e-01
3.787998259067535400e-01
3.872448801994323730e-01
3.861908614635467529e-01
3.893890380859375000e-01
3.898574411869049072e-01
3.875977098941802979e-01
3.858167529106140137e-01
3.567292392253875732e-01
3.802528381347656250e-01
3.624214231967926025e-01
3.870995938777923584e-01
3.677062392234802246e-01
3.708294630050659180e-01
3.243351876735687256e-01
3.674550354480743408e-01
3.781041800975799561e-01
3.455739617347717285e-01
3.460315465927124023e-01
3.310477435588836670e-01
3.486671149730682373e-01
3.447490334510803223e-01
3.653581440448760986e-01
3.494283258914947510e-01
3.596140742301940918e-01
3.091743588447570801e-01
3.324432075023651123e-01
3.454943895339965820e-01
3.626001477241516113e-01
3.723658621311187744e-01
3.329655528068542480e-01
3.509836196899414062e-01
3.016359806060791016e-01
3.127399981021881104e-01
3.312790095806121826e-01
3.463461995124816895e-01
3.377919793128967285e-01
3.302177488803863525e-01
3.058667480945587158e-01
3.030107021331787109e-01
2.912361621856689453e-01
3.009409606456756592e-01
3.120000064373016357e-01
3.044232130050659180e-01
2.675055861473083496e-01
2.666620612144470215e-01
2.701147496700286865e-01
2.609722316265106201e-01
2.393179386854171753e-01
2.490068227052688599e-01
2.503416836261749268e-01
2.340732961893081665e-01
1.995752602815628052e-01
1.987558752298355103e-01
2.036960572004318237e-01
1.928852945566177368e-01
1.889734119176864624e-01
2.172719985246658325e-01
1.799079626798629761e-01
1.571275442838668823e-01
7.686612010002136230e-02
7.537610828876495361e-02
2.654566615819931030e-02
7.350444048643112183e-02
-1.032290980219841003e-03
-5.976817570626735687e-03
-1.405899599194526672e-02
-5.239506810903549194e-02
-8.990293741226196289e-02
-9.337915480136871338e-02
-5.602280423045158386e-02
-2.475082874298095703e-03
-5.490437150001525879e-02
-4.484828189015388489e-02
-6.139815226197242737e-02
-5.275425314903259277e-02
-4.939824342727661133e-02
-8.745810389518737793e-02
-1.087727621197700500e-01
-9.608823806047439575e-02
-1.176264286041259766e-01
-1.062427610158920288e-01
-9.880880266427993774e-02
-1.288121789693832397e-01
-1.119649484753608704e-01
-1.515597254037857056e-01
-1.373319029808044434e-01
-1.571160703897476196e-01
-1.764220148324966431e-01
-1.447989791631698608e-01
-1.686213314533233643e-01
-1.760822385549545288e-01
-2.024245709180831909e-01
-2.191626876592636108e-01
-2.086172401905059814e-01
-2.139858007431030273e-01
-2.314652949571609497e-01
-2.316649109125137329e-01
-2.142296880483627319e-01
-2.349859327077865601e-01
-2.550197541713714600e-01
-2.475419193506240845e-01
-2.396700233221054077e-01
-2.479382753372192383e-01
-2.449046373367309570e-01
-2.465114742517471313e-01
-2.297984510660171509e-01
-2.615018188953399658e-01
-2.723476290702819824e-01
-2.918914854526519775e-01
-2.780966758728027344e-01
-2.753029465675354004e-01
-2.871232330799102783e-01
-2.456949800252914429e-01
-2.667291164398193359e-01
-2.562448084354400635e-01
-3.174499571323394775e-01
-2.969508767127990723e-01
-3.090468943119049072e-01
-2.954502403736114502e-01
-3.080789744853973389e-01
-3.055571615695953369e-01
-2.912126481533050537e-01
-3.254385292530059814e-01
-3.050793111324310303e-01
-3.344229757785797119e-01
-2.873480916023254395e-01
-3.329579532146453857e-01
-2.915901839733123779e-01
-3.286127448081970215e-01
-3.167850971221923828e-01
-3.229896724224090576e-01
-3.376316428184509277e-01
-2.969271242618560791e-01
-3.301398456096649170e-01
-2.891074717044830322e-01
-3.512246310710906982e-01
-2.917557060718536377e-01
-2.960540950298309326e-01
-2.940685451030731201e-01
-3.244541883468627930e-01
-3.292022645473480225e-01
-3.211002647876739502e-01
-3.066736161708831787e-01
-3.262628912925720215e-01
-3.434041440486907959e-01
-2.978379428386688232e-01
-3.382684290409088135e-01
-2.858945131301879883e-01
-3.635031282901763916e-01
-2.699245810508728027e-01
-3.217446804046630859e-01
-2.975816130638122559e-01
-3.232077658176422119e-01
-3.506718277931213379e-01
-2.445599436759948730e-01
-3.068976700305938721e-01
-2.070767581462860107e-01
-2.887821197509765625e-01
-2.034655511379241943e-01
-2.712356150150299072e-01
-3.181710541248321533e-01
-2.716045379638671875e-01
-2.770879864692687988e-01
-1.978248655796051025e-01
-2.778191268444061279e-01
-1.855257600545883179e-01
-1.895500272512435913e-01
-1.775847077369689941e-01
-1.781385987997055054e-01
-1.816542297601699829e-01
-1.725607663393020630e-01
-1.925365030765533447e-01
-1.933227777481079102e-01
-1.854174882173538208e-01
-2.069366276264190674e-01
-2.055067867040634155e-01
-2.136444598436355591e-01
-2.211245596408843994e-01
-2.085007280111312866e-01
-1.937263756990432739e-01
-1.839961558580398560e-01
-1.684615314006805420e-01
-2.279030978679656982e-01
-2.311490178108215332e-01
-1.976417899131774902e-01
-1.910018920898437500e-01
-1.899728924036026001e-01
-1.887250691652297974e-01
-2.296512424945831299e-01
-1.939130872488021851e-01
-2.417939603328704834e-01
-2.818036973476409912e-01
-1.541721224784851074e-01
-1.367002576589584351e-01
-1.602188646793365479e-01
-1.375413686037063599e-01
-1.334749013185501099e-01
-1.151576042175292969e-01
-1.165230348706245422e-01
-1.155958250164985657e-01
-1.219736412167549133e-01
-1.714212745428085327e-01
-1.222295612096786499e-01
-1.544844806194305420e-01
-3.035615384578704834e-01
-3.057097494602203369e-01
-1.325415819883346558e-01
-2.581570446491241455e-01
-2.634217441082000732e-01
-3.010864555835723877e-01
-2.871601581573486328e-01
-2.811528742313385010e-01
-2.433726191520690918e-01
-2.919391989707946777e-01
-2.992100417613983154e-01
-2.838889956474304199e-01
-3.400020003318786621e-01
-3.360841870307922363e-01
-3.259133994579315186e-01
-1.515351682901382446e-01
-1.341312229633331299e-01
-1.253162324428558350e-01
-1.187813356518745422e-01
-1.276388764381408691e-01
-1.195550933480262756e-01
-1.188481897115707397e-01
-1.388396173715591431e-01
-1.520154774188995361e-01
-1.594978868961334229e-01
-1.619006395339965820e-01
-1.531720906496047974e-01
-1.871818304061889648e-01
-1.803158223628997803e-01
-2.130770981311798096e-01
-2.489736676216125488e-01
-2.550897002220153809e-01
-2.487868517637252808e-01
-2.302362620830535889e-01
-2.486328035593032837e-01
-2.556201815605163574e-01
-2.352761775255203247e-01
-2.532708644866943359e-01
-2.632142901420593262e-01
-2.669061720371246338e-01
-2.567892670631408691e-01
-2.755196988582611084e-01
-2.816335856914520264e-01
-2.872659265995025635e-01
-2.868417799472808838e-01
-2.899519503116607666e-01
-2.889622151851654053e-01
-2.950372695922851562e-01
-2.955604493618011475e-01
-2.997359037399291992e-01
-3.051329255104064941e-01
-3.054434359073638916e-01
-3.036968111991882324e-01
-3.046974241733551025e-01
-3.162483274936676025e-01
-3.149827420711517334e-01
-3.144505918025970459e-01
-3.213647603988647461e-01
-3.141245245933532715e-01
-3.223043680191040039e-01
-3.151910603046417236e-01
-3.150872290134429932e-01
-3.191844820976257324e-01
-3.384912610054016113e-01
-3.286564946174621582e-01
-3.208475708961486816e-01
-3.413631021976470947e-01
-3.379570543766021729e-01
-3.358292877674102783e-01
-3.320641517639160156e-01
-3.436147868633270264e-01
-3.315653502941131592e-01
-3.385071754455566406e-01
-3.416688740253448486e-01
-3.380399048328399658e-01
-3.535751700401306152e-01
-3.540500998497009277e-01
-3.227960467338562012e-01
-3.264437317848205566e-01
-3.240553736686706543e-01
-3.255823552608489990e-01
-3.367699384689331055e-01
-3.366690278053283691e-01
-3.286687433719635010e-01
-3.406462073326110840e-01
-3.165275752544403076e-01
-3.171656727790832520e-01
-3.319570422172546387e-01
-3.432563543319702148e-01
-3.206309676170349121e-01
-3.468973636627197266e-01
-3.387120962142944336e-01
-3.350023329257965088e-01
-3.242126703262329102e-01
-3.120994269847869873e-01
-3.423084616661071777e-01
-3.497800827026367188e-01
-3.376711308956146240e-01
-3.349601328372955322e-01
-3.319607377052307129e-01
-3.264449834823608398e-01
-3.302652537822723389e-01
-3.268619179725646973e-01
-3.492997586727142334e-01
-3.623312115669250488e-01
-3.586265742778778076e-01
-3.265618979930877686e-01
-3.290105462074279785e-01
-3.456265926361083984e-01
-3.472231328487396240e-01
-3.402010202407836914e-01
-3.515111804008483887e-01
-3.472003936767578125e-01
-3.488268256187438965e-01
-3.475351035594940186e-01
-3.377261757850646973e-01
-3.567217290401458740e-01
-3.376001715660095215e-01
-3.451985418796539307e-01
-3.516368567943572998e-01
-3.630911409854888916e-01
-3.627031445503234863e-01
-3.559064567089080811e-01
-3.490982353687286377e-01
-3.511100709438323975e-01
-3.562801480293273926e-01
-3.484281897544860840e-01
-3.501091897487640381e-01
-3.559394776821136475e-01
-3.679621219635009766e-01
-3.529160320758819580e-01
-3.537529706954956055e-01
-3.487441539764404297e-01
-3.628469407558441162e-01
-3.605040013790130615e-01
-3.508009612560272217e-01
-3.680814206600189209e-01
-3.619012832641601562e-01
-3.640789091587066650e-01
-3.369314968585968018e-01
-3.451813161373138428e-01
-3.476159870624542236e-01
-3.456246852874755859e-01
-3.524909615516662598e-01
-3.493322730064392090e-01
-3.482598066329956055e-01
-3.571503460407257080e-01
-3.694748878479003906e-01
-3.609701991081237793e-01
-3.675345480442047119e-01
-3.552993834018707275e-01
-3.583712577819824219e-01
-3.628444075584411621e-01
-3.498492836952209473e-01
-3.588430285453796387e-01
-3.698090016841888428e-01
-3.687140643596649170e-01
-3.610577881336212158e-01
-3.704739511013031006e-01
-3.556903600692749023e-01
-3.753667771816253662e-01
-3.766405880451202393e-01
-3.521654903888702393e-01
-3.633689284324645996e-01
-3.656488656997680664e-01
-3.817351162433624268e-01
-3.747921884059906006e-01
-3.826673626899719238e-01
-3.700735867023468018e-01
-3.681100606918334961e-01
-3.698943257331848145e-01
-3.688694536685943604e-01
-3.540398180484771729e-01
-3.624964952468872070e-01
-3.694835305213928223e-01
-3.545380532741546631e-01
-3.670422136783599854e-01
-3.549783825874328613e-01
-3.479574024677276611e-01
-3.427684903144836426e-01
-3.609223365783691406e-01
-3.725267648696899414e-01
-3.517487347126007080e-01
-3.615990579128265381e-01
-3.718743324279785156e-01
-3.622779846191406250e-01
-3.561093807220458984e-01
-3.559030592441558838e-01
-3.487038314342498779e-01
-3.690930306911468506e-01
-3.598058521747589111e-01
-3.445519506931304932e-01
-3.692322671413421631e-01
-3.599084615707397461e-01
-3.628181219100952148e-01
-3.812192082405090332e-01
-3.694084882736206055e-01
-3.532729446887969971e-01
-3.452227115631103516e-01
-3.394004106521606445e-01
-3.474825918674468994e-01
-3.382101655006408691e-01
-3.430322408676147461e-01
-3.473846912384033203e-01
-3.508880138397216797e-01
-3.600053787231445312e-01
-3.567342162132263184e-01
-3.547694385051727295e-01
-3.483336567878723145e-01
-3.395639061927795410e-01
-3.387522101402282715e-01
-3.404798805713653564e-01
-3.360539972782135010e-01
-3.400188088417053223e-01
-3.420523405075073242e-01
-3.325649499893188477e-01
-3.365982174873352051e-01
-3.255909681320190430e-01
-3.357688486576080322e-01
-3.353042006492614746e-01
-3.328097164630889893e-01
-3.213829696178436279e-01
-3.108579814434051514e-01
-3.139016628265380859e-01
-3.025158345699310303e-01
-3.004090487957000732e-01
-2.888361811637878418e-01
-2.896291613578796387e-01
-2.818303108215332031e-01
-2.792035937309265137e-01
-2.762799859046936035e-01
-2.828515172004699707e-01
-2.671037912368774414e-01
-2.719349861145019531e-01
-2.532434463500976562e-01
-2.476165592670440674e-01
-2.568092644214630127e-01
-2.334790080785751343e-01
-2.363056689500808716e-01
-2.205703705549240112e-01
-2.211322486400604248e-01
-2.048550248146057129e-01
-2.193637341260910034e-01
-2.202265411615371704e-01
-2.101401835680007935e-01
-1.793986707925796509e-01
-1.562135368585586548e-01
-1.564140915870666504e-01
-1.416607648134231567e-01
-1.323834806680679321e-01
-1.473857462406158447e-01
-1.052251756191253662e-01
-1.242913231253623962e-01
-6.810818612575531006e-02
-7.974926382303237915e-02
-9.120004624128341675e-02
-6.446761637926101685e-02
-5.637761577963829041e-02
-4.874094203114509583e-02
-1.881475746631622314e-02
-2.220673486590385437e-02
1.092950627207756042e-02
2.845106273889541626e-02
4.033795371651649475e-02
4.658295214176177979e-02
6.954263150691986084e-02
7.812823355197906494e-02
1.008741632103919983e-01
1.051091700792312622e-01
1.473620235919952393e-01
1.622315049171447754e-01
1.719100624322891235e-01
1.807798147201538086e-01
1.949470788240432739e-01
1.954514086246490479e-01
2.045787125825881958e-01
2.388408184051513672e-01
2.458532303571701050e-01
2.210479080677032471e-01
2.630121707916259766e-01
2.543056011199951172e-01
2.783195376396179199e-01
2.801746129989624023e-01
2.939355373382568359e-01
2.964145839214324951e-01
2.902282476425170898e-01
2.224953025579452515e-01
2.819902598857879639e-01
3.202225267887115479e-01
3.255701661109924316e-01
2.957765460014343262e-01
2.699514329433441162e-01
3.136772811412811279e-01
3.124840557575225830e-01
3.090261816978454590e-01
3.189357817173004150e-01
3.288115262985229492e-01
3.438051342964172363e-01
3.273620307445526123e-01
3.184006214141845703e-01
3.083610832691192627e-01
2.986210882663726807e-01
2.743812501430511475e-01
3.242039382457733154e-01
3.411563932895660400e-01
3.531064093112945557e-01
3.402036428451538086e-01
3.026399910449981689e-01
3.476588428020477295e-01
3.291302621364593506e-01
3.467082977294921875e-01
3.467020988464355469e-01
3.467826545238494873e-01
3.554083108901977539e-01
3.489337265491485596e-01
3.408651649951934814e-01
3.078334629535675049e-01
3.373252451419830322e-01
2.673197090625762939e-01
3.403771221637725830e-01
3.526430428028106689e-01
3.578929901123046875e-01
3.477416634559631348e-01
3.318535983562469482e-01
3.488169908523559570e-01
3.563373684883117676e-01
3.430580198764801025e-01
3.526994585990905762e-01
3.556832075119018555e-01
3.668965101242065430e-01
3.531855344772338867e-01
3.593208789825439453e-01
3.212312161922454834e-01
3.606066405773162842e-01
2.528091073036193848e-01
3.738830387592315674e-01
3.664449751377105713e-01
3.746906816959381104e-01
2.702071070671081543e-01
3.325033783912658691e-01
3.715538978576660156e-01
3.713155090808868408e-01
3.635183870792388916e-01
3.556969761848449707e-01
3.366229236125946045e-01
3.240163922309875488e-01
3.545299768447875977e-01
3.170956075191497803e-01
3.735643029212951660e-01
3.788249492645263672e-01
3.357239663600921631e-01
3.083293139934539795e-01
3.732494115829467773e-01
3.748792409896850586e-01
3.750033974647521973e-01
3.748438358306884766e-01
3.693463802337646484e-01
3.643531203269958496e-01
3.526885807514190674e-01
3.511411845684051514e-01
3.498040437698364258e-01
3.581524491310119629e-01
3.454279005527496338e-01
3.356988430023193359e-01
3.422086834907531738e-01
3.266699016094207764e-01
3.337172865867614746e-01
3.759740889072418213e-01
3.715691566467285156e-01
3.738090097904205322e-01
3.528445661067962646e-01
3.563590347766876221e-01
3.433308899402618408e-01
3.430539369583129883e-01
3.539732396602630615e-01
3.390101194381713867e-01
3.404171764850616455e-01
3.436833620071411133e-01
3.382727205753326416e-01
3.408572375774383545e-01
3.363341689109802246e-01
3.320915997028350830e-01
3.217564225196838379e-01
3.061045706272125244e-01
3.209898173809051514e-01
3.050486445426940918e-01
3.146707117557525635e-01
3.095835447311401367e-01
3.217730522155761719e-01
3.205097615718841553e-01
3.265067040920257568e-01
3.505110144615173340e-01
3.275769352912902832e-01
3.240381777286529541e-01
3.095552623271942139e-01
3.194528818130493164e-01
3.223479390144348145e-01
3.301268815994262695e-01
3.333061933517456055e-01
3.153522610664367676e-01
3.424848914146423340e-01
3.267105221748352051e-01
3.484507501125335693e-01
3.369795680046081543e-01
3.440554440021514893e-01
3.464667797088623047e-01
3.503501117229461670e-01
3.500595390796661377e-01
3.476557433605194092e-01
3.414927124977111816e-01
3.529440760612487793e-01
3.483697175979614258e-01
3.402466773986816406e-01
3.418965041637420654e-01
3.441284596920013428e-01
3.373906016349792480e-01
3.399029076099395752e-01
3.459526598453521729e-01
3.581021726131439209e-01
3.522823154926300049e-01
3.521841764450073242e-01
3.464741110801696777e-01
3.692819178104400635e-01
3.539504110813140869e-01
3.603147268295288086e-01
3.595600128173828125e-01
3.397838175296783447e-01
3.568206727504730225e-01
3.236845135688781738e-01
3.562709093093872070e-01
3.460001051425933838e-01
3.550681471824645996e-01
3.593012094497680664e-01
3.415772318840026855e-01
3.485801815986633301e-01
3.675759136676788330e-01
3.410509824752807617e-01
3.348867595195770264e-01
3.647304177284240723e-01
3.755138814449310303e-01
3.678815364837646484e-01
3.488617837429046631e-01
3.522450923919677734e-01
3.618677556514739990e-01
3.331495523452758789e-01
3.246600031852722168e-01
3.649766743183135986e-01
3.686441183090209961e-01
3.627716600894927979e-01
2.758392691612243652e-01
3.520570993423461914e-01
3.606306910514831543e-01
3.454435467720031738e-01
3.332539498805999756e-01
3.555760681629180908e-01
3.600637912750244141e-01
3.554258942604064941e-01
3.563174009323120117e-01
3.411302268505096436e-01
3.349059522151947021e-01
3.537999987602233887e-01
3.422365784645080566e-01
3.640055656433105469e-01
3.557004034519195557e-01
3.584810495376586914e-01
2.986848950386047363e-01
3.481415212154388428e-01
3.698167800903320312e-01
2.874110937118530273e-01
2.977945208549499512e-01
3.168272078037261963e-01
3.305818438529968262e-01
3.425330519676208496e-01
3.334425687789916992e-01
2.978002130985260010e-01
2.912209928035736084e-01
2.966497540473937988e-01
3.005810081958770752e-01
3.072837591171264648e-01
3.136607408523559570e-01
2.978351712226867676e-01
2.056970000267028809e-01
2.205270081758499146e-01
2.914262115955352783e-01
1.542527377605438232e-01
8.809378743171691895e-02
3.394516557455062866e-02
2.887266501784324646e-02
1.224982086569070816e-02
1.223548278212547302e-01
1.500113215297460556e-02
3.006765805184841156e-02
-5.713078752160072327e-02
7.984174042940139771e-02
6.138297170400619507e-02
1.785859093070030212e-02
-3.828039765357971191e-02
-1.519281864166259766e-01
-1.882030069828033447e-01
-1.069370508193969727e-01
-1.925622671842575073e-01
-1.888849586248397827e-01
-1.851938962936401367e-01
-2.641829848289489746e-01
-2.395089119672775269e-01
-1.899597048759460449e-01
-2.323867231607437134e-01
-2.408151626586914062e-01
-2.794204652309417725e-01
-2.520524561405181885e-01
-2.492558062076568604e-01
-2.390150725841522217e-01
-2.951273322105407715e-01
-3.117907047271728516e-01
-2.716161310672760010e-01
-2.652968764305114746e-01
-3.239680826663970947e-01
-2.743515968322753906e-01
-2.862915396690368652e-01
-3.126887083053588867e-01
-2.905522882938385010e-01
-3.142640888690948486e-01
-3.167663216590881348e-01
-3.333046138286590576e-01
-3.458908796310424805e-01
-2.995497584342956543e-01
-3.111289143562316895e-01
-2.915577590465545654e-01
-3.090154230594635010e-01
-3.366113007068634033e-01
-3.248389363288879395e-01
-3.134264349937438965e-01
-3.348188698291778564e-01
-3.142259120941162109e-01
-3.163169026374816895e-01
-3.168848752975463867e-01
-3.631968796253204346e-01
-3.237425386905670166e-01
-3.512517809867858887e-01
-3.328255712985992432e-01
-3.140550255775451660e-01
-3.255616426467895508e-01
-2.904365956783294678e-01
-3.145638108253479004e-01
-3.265092670917510986e-01
-3.320920169353485107e-01
-3.162149786949157715e-01
-2.983867824077606201e-01
-3.379132449626922607e-01
-3.092472553253173828e-01
-3.578213751316070557e-01
-3.356830775737762451e-01
-3.507583439350128174e-01
-3.468358218669891357e-01
-3.506823182106018066e-01
-3.550981879234313965e-01
-3.520957529544830322e-01
-3.582476377487182617e-01
-3.464270830154418945e-01
-3.476402163505554199e-01
-3.537308871746063232e-01
-3.521400392055511475e-01
-3.486856520175933838e-01
-3.352892398834228516e-01
-3.421802818775177002e-01
-3.458681404590606689e-01
-3.355439305305480957e-01
-3.394335806369781494e-01
-3.514752089977264404e-01
-3.557496070861816406e-01
-3.654261827468872070e-01
-3.573178350925445557e-01
-3.494515717029571533e-01
-3.524190485477447510e-01
-3.314780890941619873e-01
-3.580657243728637695e-01
-3.467788994312286377e-01
-3.628630936145782471e-01
-3.428297042846679688e-01
-3.511709272861480713e-01
-3.548290431499481201e-01
-3.436898589134216309e-01
-3.572706878185272217e-01
-3.476655483245849609e-01
-3.637665212154388428e-01
-3.587626516819000244e-01
-3.528615534305572510e-01
-3.504860401153564453e-01
-3.492699861526489258e-01
-3.511385619640350342e-01
-3.400211036205291748e-01
-3.372009396553039551e-01
-3.443900644779205322e-01
-3.609027564525604248e-01
-3.577207326889038086e-01
-3.666834533214569092e-01
-3.516082167625427246e-01
-3.545973300933837891e-01
-3.463782668113708496e-01
-3.434609472751617432e-01
-3.462297320365905762e-01
-3.381035625934600830e-01
-3.463000059127807617e-01
-3.383325338363647461e-01
-3.463442325592041016e-01
-3.493628203868865967e-01
-3.583710193634033203e-01
-3.586242496967315674e-01
-3.534689247608184814e-01
-3.553512692451477051e-01
-3.505774736404418945e-01
-3.639319539070129395e-01
-3.440207839012145996e-01
-3.544796705245971680e-01
-3.535405993461608887e-01
-3.526991009712219238e-01
-3.527183532714843750e-01
-3.527335524559020996e-01
-3.507289886474609375e-01
-3.446881175041198730e-01
-3.442949652671813965e-01
-3.568947017192840576e-01
-3.565752804279327393e-01
-3.626976907253265381e-01
-3.712129294872283936e-01
-3.551902174949645996e-01
-3.752230405807495117e-01
-3.578118383884429932e-01
-3.629408776760101318e-01
-3.558159768581390381e-01
-3.351742029190063477e-01
-3.405520021915435791e-01
-3.465295732021331787e-01
-3.558705449104309082e-01
-3.461832106113433838e-01
-3.733972907066345215e-01
-3.560448586940765381e-01
-3.520910441875457764e-01
-3.614614605903625488e-01
-3.661284148693084717e-01
-3.706868886947631836e-01
-3.300320804119110107e-01
-3.467544019222259521e-01
-3.499502241611480713e-01
-3.212890923023223877e-01
-3.215042650699615479e-01
-3.323043286800384521e-01
-3.262941241264343262e-01
-3.470621705055236816e-01
-3.371695280075073242e-01
-3.166319429874420166e-01
-3.473105430603027344e-01
-3.398611843585968018e-01
-3.543388247489929199e-01
-3.714498281478881836e-01
-3.725470602512359619e-01
-3.119172751903533936e-01
-3.576501607894897461e-01
-2.733733057975769043e-01
-2.867012917995452881e-01
-1.706328243017196655e-01
-4.149688407778739929e-02
-2.668868303298950195e-01
2.151125110685825348e-02
-2.874909341335296631e-01
-1.050242781639099121e-01
-2.530235350131988525e-01
-3.095450699329376221e-01
-3.380594551563262939e-01
-3.464588224887847900e-01
-3.628596067428588867e-01
-3.618816137313842773e-01
-3.573642969131469727e-01
-3.432114124298095703e-01
-3.539083898067474365e-01
-3.380329012870788574e-01
-3.402093648910522461e-01
-3.475504219532012939e-01
-3.389663994312286377e-01
-3.481480479240417480e-01
-3.528517186641693115e-01
-3.246677219867706299e-01
-3.405109941959381104e-01
-2.840225696563720703e-01
-3.085446059703826904e-01
-3.112750053405761719e-01
-3.091703951358795166e-01
-3.065731227397918701e-01
-3.172793090343475342e-01
-2.993975281715393066e-01
-3.721901774406433105e-01
-3.474228382110595703e-01
-3.564313054084777832e-01
-3.488939106464385986e-01
-3.263795673847198486e-01
-3.077763020992279053e-01
-3.429204225540161133e-01
-3.520361781120300293e-01
-3.529938757419586182e-01
-3.421521484851837158e-01
-3.363323509693145752e-01
-3.269911706447601318e-01
-3.276521265506744385e-01
-3.090420365333557129e-01
-3.250653445720672607e-01
-2.517384886741638184e-01
-3.465867936611175537e-01
-1.570218056440353394e-01
-1.360578536987304688e-01
-9.004101902246475220e-02
-8.667733520269393921e-02
-2.391080558300018311e-02
-6.757502257823944092e-02
-3.419807925820350647e-02
-1.254578083753585815e-01
-4.418278113007545471e-02
-1.434521377086639404e-01
-8.482204377651214600e-02
-2.997030317783355713e-01
-2.304734289646148682e-01
-2.803824841976165771e-01
-2.046214938163757324e-01
-2.723665833473205566e-01
-2.590652406215667725e-01
-2.516163289546966553e-01
-2.390594631433486938e-01
-2.528598606586456299e-01
-9.835761785507202148e-02
-2.110540866851806641e-01
-2.020282745361328125e-01
-8.083160221576690674e-02
-1.809905171394348145e-01
-1.724569201469421387e-01
-1.831743568181991577e-01
-1.867117136716842651e-01
-1.408986598253250122e-01
1.323945820331573486e-03
1.434892788529396057e-02
-1.429035216569900513e-01
-1.585061475634574890e-02
7.068978250026702881e-02
5.743212997913360596e-02
8.022912591695785522e-02
1.086515262722969055e-01
1.033220440149307251e-01
9.991482645273208618e-02
1.162679716944694519e-01
1.145367547869682312e-01
1.301385462284088135e-01
1.465833932161331177e-01
2.148576080799102783e-02
2.658862061798572540e-02
3.566363081336021423e-02
2.026903927326202393e-01
-1.673887297511100769e-02
-1.195719931274652481e-02
3.925478830933570862e-02
7.927448302507400513e-02
7.897938042879104614e-02
2.351751625537872314e-01
1.910002343356609344e-02
8.180537819862365723e-02
2.800550758838653564e-01
2.514093816280364990e-01
1.810695379972457886e-01
2.998969256877899170e-01
1.785158663988113403e-01
2.055284827947616577e-01
2.939646244049072266e-01
2.645722329616546631e-01
2.470944374799728394e-01
2.876919806003570557e-01
2.925820946693420410e-01
2.829549312591552734e-01
2.757566273212432861e-01
2.615381181240081787e-01
3.401936888694763184e-01
3.302023708820343018e-01
3.037428855895996094e-01
3.293123245239257812e-01
2.440566569566726685e-01
3.036449849605560303e-01
1.050634905695915222e-01
1.596696674823760986e-01
3.623948991298675537e-01
3.665896356105804443e-01
1.715962588787078857e-01
2.662137746810913086e-01
3.442426919937133789e-01
3.322422504425048828e-01
3.317592144012451172e-01
3.087317049503326416e-01
3.541825413703918457e-01
3.324216008186340332e-01
3.210858106613159180e-01
3.205862045288085938e-01
3.546774387359619141e-01
3.523434400558471680e-01
1.962428689002990723e-01
3.358880579471588135e-01
3.519447147846221924e-01
3.561302721500396729e-01
1.406708508729934692e-01
1.676570177078247070e-01
2.533871233463287354e-01
2.562736868858337402e-01
2.182308435440063477e-01
3.388832509517669678e-01
2.246037274599075317e-01
3.639933466911315918e-01
3.542875945568084717e-01
3.554717004299163818e-01
3.673746883869171143e-01
3.418030440807342529e-01
3.448078632354736328e-01
3.440389931201934814e-01
3.450207412242889404e-01
3.457276821136474609e-01
3.376261889934539795e-01
3.472184240818023682e-01
3.505033850669860840e-01
3.768934011459350586e-01
3.745414018630981445e-01
3.742831945419311523e-01
3.773051798343658447e-01
3.182476162910461426e-01
2.900129556655883789e-01
2.355132102966308594e-01
2.766489386558532715e-01
3.684838116168975830e-01
3.794451951980590820e-01
1.626298874616622925e-01
3.464361131191253662e-01
3.829391598701477051e-01
3.845854699611663818e-01
3.785215020179748535e-01
3.799595832824707031e-01
3.793010711669921875e-01
3.830072283744812012e-01
3.770542144775390625e-01
3.751687407493591309e-01
3.808794021606445312e-01
3.756245672702789307e-01
3.744789361953735352e-01
3.806083202362060547e-01
3.839139044284820557e-01
3.796297609806060791e-01
3.879992067813873291e-01
3.818727135658264160e-01
2.610615789890289307e-01
3.906205594539642334e-01
3.461047708988189697e-01
2.974329590797424316e-01
2.770922183990478516e-01
3.316347301006317139e-01
2.845573127269744873e-01
3.773987293243408203e-01
2.944267094135284424e-01
3.236106634140014648e-01
3.571597933769226074e-01
3.565360605716705322e-01
3.721342682838439941e-01
3.715102672576904297e-01
3.643855452537536621e-01
3.656825721263885498e-01
3.264056444168090820e-01
3.672646880149841309e-01
3.692345917224884033e-01
3.215011358261108398e-01
2.823698818683624268e-01
3.681194484233856201e-01
3.050994575023651123e-01
3.628791570663452148e-01
2.721499204635620117e-01
2.674668431282043457e-01
2.658317685127258301e-01
2.822528481483459473e-01
3.107761740684509277e-01
3.758556842803955078e-01
3.689243495464324951e-01
3.857782781124114990e-01
3.293762803077697754e-01
3.715174794197082520e-01
3.864259123802185059e-01
3.642933666706085205e-01
3.713036477565765381e-01
3.625843822956085205e-01
3.858556747436523438e-01
3.753901422023773193e-01
3.520763218402862549e-01
3.456966578960418701e-01
3.443912267684936523e-01
3.643493056297302246e-01
3.493220806121826172e-01
3.393173515796661377e-01
3.749310076236724854e-01
3.655726611614227295e-01
3.126977384090423584e-01
3.313671946525573730e-01
3.508467078208923340e-01
2.785074710845947266e-01
2.835148274898529053e-01
3.131871223449707031e-01
3.086694180965423584e-01
3.095181882381439209e-01
2.947188913822174072e-01
2.820049822330474854e-01
2.899024188518524170e-01
2.970160245895385742e-01
2.814966738224029541e-01
2.920607626438140869e-01
2.929397821426391602e-01
2.983013689517974854e-01
2.908650934696197510e-01
2.941495776176452637e-01
2.954697012901306152e-01
2.834492921829223633e-01
2.820706963539123535e-01
2.954514026641845703e-01
2.702712416648864746e-01
2.706038951873779297e-01
2.760124802589416504e-01
3.077174723148345947e-01
3.089787662029266357e-01
2.820614278316497803e-01
3.025483489036560059e-01
2.845928668975830078e-01
3.046531081199645996e-01
2.960442304611206055e-01
2.768154442310333252e-01
2.991815507411956787e-01
2.841986715793609619e-01
2.721767425537109375e-01
2.837634980678558350e-01
2.968748807907104492e-01
3.011576235294342041e-01
2.967225313186645508e-01
2.910930216312408447e-01
3.111010193824768066e-01
2.860789000988006592e-01
3.082517087459564209e-01
2.967716753482818604e-01
3.126190602779388428e-01
3.167978823184967041e-01
3.070648312568664551e-01
3.085738122463226318e-01
2.915637493133544922e-01
2.761712968349456787e-01
2.625231146812438965e-01
2.929747700691223145e-01
2.596016824245452881e-01
2.420965880155563354e-01
2.132280319929122925e-01
8.920229971408843994e-02
1.816117763519287109e-01
2.610202729701995850e-01
2.371424138545989990e-01
2.798451483249664307e-01
2.845537066459655762e-01
2.693952322006225586e-01
2.847443819046020508e-01
2.360898256301879883e-01
1.929170042276382446e-01
2.839663028717041016e-01
2.594594359397888184e-01
2.489583045244216919e-01
2.335548698902130127e-01
2.393223792314529419e-01
2.291699200868606567e-01
1.867947131395339966e-01
1.373441815376281738e-01
1.186414361000061035e-01
6.009179353713989258e-02
3.024070709943771362e-02
1.306735128164291382e-01
6.933480501174926758e-02
7.528544962406158447e-02
8.700798451900482178e-02
1.752666085958480835e-01
1.423904597759246826e-01
1.683572679758071899e-01
2.066323459148406982e-01
1.786476224660873413e-01
1.992776691913604736e-01
1.832855492830276489e-01
1.470101326704025269e-01
1.010462343692779541e-01
1.780931055545806885e-01
1.579969674348831177e-01
1.076643019914627075e-01
1.702453568577766418e-02
-1.467467844486236572e-02
-4.363109543919563293e-02
2.101467177271842957e-02
-5.699138343334197998e-02
-1.189968138933181763e-01
-7.975099235773086548e-02
-2.757664024829864502e-02
-8.808973431587219238e-02
-5.578988045454025269e-02
-1.014036033302545547e-02
-3.688223287463188171e-02
-7.484243810176849365e-02
1.017327886074781418e-02
-2.951282076537609100e-02
-6.919596344232559204e-02
-1.177764460444450378e-01
-5.477326735854148865e-02
-8.553707599639892578e-02
-1.198986321687698364e-01
-7.655952870845794678e-02
-8.297155797481536865e-02
-1.132245212793350220e-01
-1.263598501682281494e-01
-1.509361565113067627e-01
-1.691375374794006348e-01
-1.447254568338394165e-01
-1.396862119436264038e-01
-1.535203158855438232e-01
-1.222149506211280823e-01
-1.818534880876541138e-01
-1.651882380247116089e-01
-1.505789607763290405e-01
-1.952740252017974854e-01
-1.942452043294906616e-01
-1.936855763196945190e-01
-1.816696673631668091e-01
-2.116566151380538940e-01
-1.829303205013275146e-01
-1.859665215015411377e-01
-2.044672816991806030e-01
-2.242510914802551270e-01
-2.211949527263641357e-01
-2.210285216569900513e-01
-1.909090429544448853e-01
-1.717730313539505005e-01
-1.910630315542221069e-01
-2.058979272842407227e-01
-1.828007549047470093e-01
-1.877156496047973633e-01
-1.678643524646759033e-01
-1.627970933914184570e-01
-1.397808045148849487e-01
-1.390616595745086670e-01
-1.339896619319915771e-01
-1.119267642498016357e-01
-8.379244804382324219e-02
-6.704352051019668579e-02
-6.491460651159286499e-02
-8.776800334453582764e-02
-1.101479083299636841e-01
-1.039681956171989441e-01
-8.977912366390228271e-02
-2.901117689907550812e-02
3.223404288291931152e-02
1.915726438164710999e-02
2.576578781008720398e-02
-4.745396971702575684e-02
-7.622186839580535889e-02
-7.050112634897232056e-02
2.903495170176029205e-02
7.351931929588317871e-02
5.796067416667938232e-02
2.783315628767013550e-02
6.076677516102790833e-02
2.833465859293937683e-02
1.584200933575630188e-02
4.344343394041061401e-02
9.594749659299850464e-02
1.370558291673660278e-01
8.391813188791275024e-02
7.605679333209991455e-02
1.119714975357055664e-01
1.441364437341690063e-01
1.170847117900848389e-01
7.471705228090286255e-02
1.615292876958847046e-01
1.401239186525344849e-01
1.030206084251403809e-01
1.268977373838424683e-01
1.462278217077255249e-01
1.862859427928924561e-01
1.622628122568130493e-01
1.622560620307922363e-01
1.465451717376708984e-01
2.037702202796936035e-01
1.445531845092773438e-01
2.321746200323104858e-01
2.036275565624237061e-01
2.361738532781600952e-01
1.265304982662200928e-01
1.849619001150131226e-01
2.154713869094848633e-01
2.088267505168914795e-01
1.827603578567504883e-01
1.716679185628890991e-01
2.439173460006713867e-01
2.485849112272262573e-01
1.899888217449188232e-01
2.662990689277648926e-01
2.620883882045745850e-01
2.689884901046752930e-01
1.257559210062026978e-01
1.568218469619750977e-01
3.253189325332641602e-01
3.068578243255615234e-01
1.449466198682785034e-01
1.345951706171035767e-01
3.242903649806976318e-01
3.063253760337829590e-01
2.237213701009750366e-01
2.537977397441864014e-01
3.084044754505157471e-01
3.216769695281982422e-01
2.104622721672058105e-01
2.314248234033584595e-01
3.053965270519256592e-01
3.307872712612152100e-01
2.832092940807342529e-01
2.871738970279693604e-01
3.293452858924865723e-01
3.312958776950836182e-01
2.632589936256408691e-01
1.865973472595214844e-01
2.958692610263824463e-01
3.193609714508056641e-01
2.195681780576705933e-01
2.808509469032287598e-01
2.722674906253814697e-01
2.984524369239807129e-01
3.430763483047485352e-01
3.229109942913055420e-01
2.833029925823211670e-01
3.414214253425598145e-01
3.442112505435943604e-01
3.315709233283996582e-01
3.458950817584991455e-01
3.507435619831085205e-01
3.456201255321502686e-01
3.543620109558105469e-01
3.498593866825103760e-01
3.574492335319519043e-01
3.373992741107940674e-01
3.505262732505798340e-01
3.632870316505432129e-01
3.655851781368255615e-01
3.653900027275085449e-01
3.688195943832397461e-01
3.635265827178955078e-01
3.633332550525665283e-01
3.677637279033660889e-01
3.623427748680114746e-01
3.701328039169311523e-01
3.748530447483062744e-01
3.651288449764251709e-01
3.754855096340179443e-01
3.598421216011047363e-01
2.949280440807342529e-01
2.696069180965423584e-01
3.119394481182098389e-01
3.579930663108825684e-01
3.572783470153808594e-01
3.150660693645477295e-01
3.316869139671325684e-01
3.396264016628265381e-01
3.436877131462097168e-01
3.442367315292358398e-01
3.281835317611694336e-01
3.553408086299896240e-01
3.523103892803192139e-01
3.172082304954528809e-01
3.255243599414825439e-01
3.332947492599487305e-01
3.356760144233703613e-01
3.406665921211242676e-01
3.308850824832916260e-01
3.752715885639190674e-01
3.397802114486694336e-01
3.330837786197662354e-01
3.569995164871215820e-01
3.662194609642028809e-01
3.809001147747039795e-01
3.498761951923370361e-01
3.473877906799316406e-01
3.661929070949554443e-01
3.629772663116455078e-01
3.759271502494812012e-01
3.151092827320098877e-01
3.534775376319885254e-01
3.321892619132995605e-01
3.484968543052673340e-01
3.495733141899108887e-01
3.682275116443634033e-01
3.454400599002838135e-01
3.609988987445831299e-01
3.479337990283966064e-01
3.666200041770935059e-01
3.770040571689605713e-01
3.683377504348754883e-01
3.754737675189971924e-01
3.655506074428558350e-01
3.532718420028686523e-01
3.410319685935974121e-01
3.767923116683959961e-01
3.743249177932739258e-01
3.602532744407653809e-01
3.701324462890625000e-01
3.682205080986022949e-01
3.669828176498413086e-01
3.795265853404998779e-01
3.732900321483612061e-01
3.006081283092498779e-01
3.760373592376708984e-01
3.822478353977203369e-01
3.817072808742523193e-01
3.480687737464904785e-01
3.793982565402984619e-01
3.497321009635925293e-01
3.558987975120544434e-01
3.566427826881408691e-01
3.653419017791748047e-01
3.845222592353820801e-01
3.861751556396484375e-01
3.582127690315246582e-01
3.442102372646331787e-01
3.346421420574188232e-01
3.308525383472442627e-01
3.594576120376586914e-01
3.332143723964691162e-01
3.517938554286956787e-01
3.548726439476013184e-01
3.617847859859466553e-01
3.645195960998535156e-01
3.319178819656372070e-01
3.346854448318481445e-01
3.636008799076080322e-01
3.269302546977996826e-01
3.256797790527343750e-01
3.457912802696228027e-01
3.422386944293975830e-01
3.720666170120239258e-01
3.350410461425781250e-01
3.251041769981384277e-01
3.572556674480438232e-01
3.392657339572906494e-01
3.398949503898620605e-01
3.495648503303527832e-01
3.366528451442718506e-01
3.416060209274291992e-01
3.387510478496551514e-01
3.186125159263610840e-01
3.449850380420684814e-01
3.378156125545501709e-01
3.376077115535736084e-01
3.308813571929931641e-01
3.356037735939025879e-01
3.103752136230468750e-01
3.220077455043792725e-01
3.272819817066192627e-01
3.365243673324584961e-01
3.263708353042602539e-01
3.264045119285583496e-01
3.200227916240692139e-01
3.172790408134460449e-01
3.200353085994720459e-01
3.231427967548370361e-01
3.104761540889739990e-01
3.122948408126831055e-01
3.054926991462707520e-01
2.918498516082763672e-01
3.049707114696502686e-01
2.963556945323944092e-01
2.895967662334442139e-01
2.876344323158264160e-01
2.868772745132446289e-01
2.802636921405792236e-01
2.520201802253723145e-01
2.884815931320190430e-01
2.628757357597351074e-01
2.481801509857177734e-01
2.845194935798645020e-01
2.784294784069061279e-01
2.789057493209838867e-01
2.559424042701721191e-01
2.604002952575683594e-01
2.635971307754516602e-01
2.464511692523956299e-01
8.605207502841949463e-02
6.154486909508705139e-02
2.548620998859405518e-01
2.499727904796600342e-01
1.965876966714859009e-01
2.113520652055740356e-01
2.040853351354598999e-01
1.221255064010620117e-01
1.301195174455642700e-01
8.519244194030761719e-02
1.603119969367980957e-01
2.024284303188323975e-01
1.982292830944061279e-01
1.381266713142395020e-01
1.789456903934478760e-01
2.141491919755935669e-01
1.779971122741699219e-01
1.307730376720428467e-01
1.638246774673461914e-01
1.964164972305297852e-01
2.040051370859146118e-01
1.761604398488998413e-01
2.246257662773132324e-01
1.856382191181182861e-01
9.270657598972320557e-02
7.767953723669052124e-02
6.178854405879974365e-02
1.443284749984741211e-01
1.948530226945877075e-01
-2.738752365112304688e-01
2.980490401387214661e-02
1.511583477258682251e-01
1.221551522612571716e-01
4.871949553489685059e-02
2.085704654455184937e-01
1.005427539348602295e-01
1.484043300151824951e-01
2.263654619455337524e-01
1.821630895137786865e-01
1.168897897005081177e-01
9.207719564437866211e-02
1.341071575880050659e-01
1.461055129766464233e-01
1.398063004016876221e-01
1.379708796739578247e-01
1.366617679595947266e-01
1.212856471538543701e-01
1.605786085128784180e-01
1.194918006658554077e-01
-5.335058644413948059e-02
1.142696738243103027e-01
3.301417827606201172e-01
3.254551291465759277e-01
3.009765446186065674e-01
2.742763161659240723e-01
2.496190965175628662e-01
2.390080988407135010e-01
2.266011685132980347e-01
2.385304421186447144e-01
2.602410614490509033e-01
3.051128685474395752e-01
2.672844529151916504e-01
3.139310181140899658e-01
1.318130344152450562e-01
2.876415848731994629e-01
1.727183759212493896e-01
1.806412786245346069e-01
1.485036015510559082e-01
1.476586461067199707e-01
1.525977253913879395e-01
1.776872128248214722e-01
1.566776782274246216e-01
1.645691990852355957e-01
1.740893274545669556e-01
3.593205511569976807e-01
2.111000716686248779e-01
2.124084234237670898e-01
2.993561327457427979e-01
3.365234136581420898e-01
2.137642502784729004e-01
2.257297635078430176e-01
2.329644858837127686e-01
2.844888865947723389e-01
2.622468471527099609e-01
2.147223055362701416e-01
2.769778072834014893e-01
3.632566630840301514e-01
2.314054220914840698e-01
2.800890505313873291e-01
2.028876543045043945e-01
3.266402184963226318e-01
3.400652706623077393e-01
2.303030788898468018e-01
3.664844632148742676e-01
3.429024219512939453e-01
2.231205403804779053e-01
2.265355587005615234e-01
2.687672972679138184e-01
3.458131253719329834e-01
3.001216650009155273e-01
3.200219571590423584e-01
3.238203227519989014e-01
3.157128691673278809e-01
3.160024881362915039e-01
3.164356052875518799e-01
2.981784939765930176e-01
3.570921123027801514e-01
3.212072253227233887e-01
3.322907388210296631e-01
3.407759964466094971e-01
3.418573439121246338e-01
3.359166681766510010e-01
3.413983881473541260e-01
3.580687642097473145e-01
3.432545959949493408e-01
3.486108481884002686e-01
3.421517610549926758e-01
3.485344350337982178e-01
3.545007109642028809e-01
3.427118062973022461e-01
3.516929745674133301e-01
3.469528257846832275e-01
3.580792248249053955e-01
3.559689521789550781e-01
3.395754992961883545e-01
3.717358708381652832e-01
3.606464862823486328e-01
3.200209438800811768e-01
3.354936242103576660e-01
3.713693022727966309e-01
3.658424615859985352e-01
3.528431355953216553e-01
3.261995613574981689e-01
3.621179163455963135e-01
3.584254980087280273e-01
3.444253504276275635e-01
3.648929893970489502e-01
3.643820285797119141e-01
3.698317408561706543e-01
3.446435332298278809e-01
3.523262739181518555e-01
3.722123205661773682e-01
3.608761131763458252e-01
3.545472919940948486e-01
3.590659201145172119e-01
3.635387420654296875e-01
3.648301064968109131e-01
3.636696338653564453e-01
3.667898178100585938e-01
3.760741055011749268e-01
3.681837022304534912e-01
3.578537702560424805e-01
3.609921634197235107e-01
3.748665750026702881e-01
3.725395798683166504e-01
3.600966036319732666e-01
3.652723729610443115e-01
3.657225072383880615e-01
3.693869709968566895e-01
3.688015937805175781e-01
3.684927225112915039e-01
3.749226629734039307e-01
3.714125454425811768e-01
3.664614260196685791e-01
3.609736561775207520e-01
3.642947077751159668e-01
3.699396550655364990e-01
3.678557574748992920e-01
3.730545043945312500e-01
3.758456707000732422e-01
3.711357116699218750e-01
3.736751675605773926e-01
3.695610165596008301e-01
3.677094876766204834e-01
3.730450868606567383e-01
3.691375851631164551e-01
3.717119991779327393e-01
3.741788566112518311e-01
3.703262209892272949e-01
3.680072128772735596e-01
3.681071996688842773e-01
3.728271126747131348e-01
3.698332607746124268e-01
3.747942149639129639e-01
3.750638067722320557e-01
3.744842112064361572e-01
3.696293830871582031e-01
3.704503178596496582e-01
3.730651140213012695e-01
3.733445405960083008e-01
3.725796937942504883e-01
3.787096738815307617e-01
3.706356883049011230e-01
3.757434189319610596e-01
3.688435554504394531e-01
3.610088527202606201e-01
3.659830689430236816e-01
3.655562996864318848e-01
3.682235181331634521e-01
3.645407259464263916e-01
3.654253780841827393e-01
3.616735935211181641e-01
3.498936891555786133e-01
3.614004850387573242e-01
3.739806115627288818e-01
3.622426688671112061e-01
3.615021407604217529e-01
3.607770502567291260e-01
3.723435401916503906e-01
3.691761493682861328e-01
3.549324870109558105e-01
3.580803871154785156e-01
3.654283285140991211e-01
3.536621034145355225e-01
3.643379807472229004e-01
3.597936630249023438e-01
3.647330701351165771e-01
3.600073456764221191e-01
3.475629091262817383e-01
3.649542927742004395e-01
3.646338880062103271e-01
3.542975187301635742e-01
3.501259982585906982e-01
3.584848344326019287e-01
3.591585159301757812e-01
3.517073988914489746e-01
3.589012920856475830e-01
3.556414842605590820e-01
3.511813282966613770e-01
3.495426774024963379e-01
3.505172729492187500e-01
3.544650077819824219e-01
3.531109690666198730e-01
3.490685820579528809e-01
3.453164100646972656e-01
3.372308313846588135e-01
3.490674793720245361e-01
3.390737771987915039e-01
3.543862700462341309e-01
