-5.511794239282608032e-03
-3.163887420669198036e-03
3.415906685404479504e-04
-2.112736459821462631e-03
3.190042916685342789e-04
-3.025573678314685822e-03
2.853426849469542503e-04
-8.846676209941506386e-04
4.484296776354312897e-03
1.500836806371808052e-03
2.191420411691069603e-03
-2.307442482560873032e-04
2.219987800344824791e-03
-6.601343047805130482e-04
3.081271657720208168e-03
1.593038556165993214e-03
3.583472454920411110e-03
5.957246758043766022e-03
3.813018091022968292e-03
1.658478984609246254e-03
3.856221446767449379e-03
2.436520764604210854e-03
1.939229085110127926e-03
3.456583945080637932e-03
4.387348890304565430e-03
4.935199394822120667e-04
6.097569130361080170e-03
2.033537020906805992e-04
1.760792220011353493e-03
7.003689534030854702e-04
1.271531800739467144e-03
3.603295655921101570e-03
3.532700706273317337e-03
3.356207162141799927e-04
6.169973639771342278e-04
2.127169165760278702e-03
8.864717092365026474e-04
-5.790299619548022747e-04
-3.563144418876618147e-04
-1.262994250282645226e-03
-4.734266083687543869e-03
-1.500886748544871807e-03
-5.262910271994769573e-04
3.660229558590799570e-04
-9.417532710358500481e-04
-1.001370954327285290e-03
-1.485479646362364292e-03
-2.053838223218917847e-03
-4.119520075619220734e-03
-3.659720066934823990e-03
-3.006132319569587708e-03
-3.283523255959153175e-03
-3.955010324716567993e-03
-2.591146854683756828e-03
-5.719380569644272327e-04
-3.447023220360279083e-03
-2.809634432196617126e-03
-3.994056023657321930e-03
-1.413375139236450195e-05
-9.656789479777216911e-04
-1.673033344559371471e-03
-1.820747274905443192e-05
-4.634425567928701639e-04
1.053054002113640308e-03
-5.386362317949533463e-03
-2.490992425009608269e-03
-3.939012065529823303e-03
-2.612909302115440369e-03
-1.859204960055649281e-03
-7.101161172613501549e-04
-1.955219078809022903e-03
-5.140856374055147171e-04
7.882177596911787987e-04
1.353040430694818497e-02
-2.826817799359560013e-04
8.574465289711952209e-03
9.310494060628116131e-04
1.123290415853261948e-02
9.559200145304203033e-03
1.350563112646341324e-02
4.291811492294073105e-03
9.696009568870067596e-03
1.533447392284870148e-02
5.165518261492252350e-03
3.964958712458610535e-03
-4.247319884598255157e-05
3.255660412833094597e-03
6.554273422807455063e-04
3.780724480748176575e-03
-7.207655813544988632e-03
-6.101076956838369370e-03
-9.730341844260692596e-03
-5.486950743943452835e-03
-9.114787913858890533e-03
2.000614535063505173e-03
-2.212416147813200951e-03
2.539544948376715183e-04
3.790654940530657768e-03
5.396296270191669464e-03
8.459077216684818268e-03
3.328121965751051903e-03
6.418964359909296036e-03
5.366649013012647629e-03
2.671291818842291832e-03
-1.103706745197996497e-04
2.151826163753867149e-03
-8.783579105511307716e-04
-2.696278505027294159e-03
2.083122031763195992e-03
-6.523284246213734150e-04
1.335781067609786987e-03
-4.537500906735658646e-03
-2.177358604967594147e-03
-1.364441006444394588e-03
2.643046900629997253e-03
3.860782831907272339e-03
3.376944689080119133e-03
2.695636358112096786e-04
9.791484335437417030e-04
-1.658884109929203987e-03
-3.241916128899902105e-04
2.086387714371085167e-03
-1.784930238500237465e-03
-1.001128577627241611e-03
-9.256925550289452076e-04
-2.553621772676706314e-03
-2.592612057924270630e-03
-3.048244630917906761e-03
-2.577323932200670242e-03
-3.430242184549570084e-03
-3.952005412429571152e-03
-4.623651504516601562e-03
-3.720342181622982025e-03
-2.124882303178310394e-03
-4.022656474262475967e-03
-3.440333297476172447e-03
-9.319407865405082703e-03
-2.762049902230501175e-03
-5.278072785586118698e-03
-7.036112248897552490e-03
-4.504656419157981873e-03
-5.993212573230266571e-03
-7.803931366652250290e-03
-5.595776252448558807e-03
-7.291906047612428665e-03
-6.025738082826137543e-03
-6.825523450970649719e-03
-6.986450403928756714e-03
-7.489685434848070145e-03
-1.047554239630699158e-02
-8.423191495239734650e-03
-6.597419735044240952e-03
-1.128810830414295197e-02
-9.771387092769145966e-03
-9.216347709298133850e-03
-1.153080910444259644e-02
-1.129727251827716827e-02
-1.073371618986129761e-02
-1.081387046724557877e-02
-9.461697190999984741e-03
-8.832517080008983612e-03
-9.493290446698665619e-03
-9.352782741189002991e-03
-6.777259986847639084e-03
-3.846120554953813553e-03
-9.151514619588851929e-03
-7.521895226091146469e-03
-8.488971740007400513e-03
-8.269848302006721497e-03
-8.397518657147884369e-03
-8.122749626636505127e-03
-2.869667485356330872e-03
-8.319183252751827240e-03
-9.091025567613542080e-04
-3.099034074693918228e-03
3.753078635782003403e-03
2.200586721301078796e-03
5.578894168138504028e-03
8.218554430641233921e-04
-3.942463546991348267e-03
6.231441162526607513e-03
2.875170437619090080e-03
-5.076804198324680328e-03
-9.343562996946275234e-04
3.251340473070740700e-03
-2.234788611531257629e-03
-4.893163684755563736e-03
-1.307805720716714859e-02
-1.455010659992694855e-02
-1.274073962122201920e-02
-2.342858351767063141e-02
-1.466038450598716736e-02
-2.598931640386581421e-02
-5.389066413044929504e-02
-3.944902494549751282e-02
-3.403427824378013611e-02
-4.481885209679603577e-02
-3.316204994916915894e-02
-1.872414723038673401e-02
-4.069328308105468750e-02
-1.475474052131175995e-02
4.204409942030906677e-02
2.112118992954492569e-03
2.433045767247676849e-02
3.989988565444946289e-02
5.726424977183341980e-02
6.074728444218635559e-02
7.610350847244262695e-02
5.084998160600662231e-02
1.837417483329772949e-02
4.313124716281890869e-02
-5.778969731181859970e-03
-3.148891404271125793e-02
-7.172839343547821045e-02
-1.530700922012329102e-01
-1.417177766561508179e-01
-1.546525508165359497e-01
-2.263895571231842041e-01
-2.709931731224060059e-01
-2.375966459512710571e-01
-2.042920589447021484e-01
-2.575787007808685303e-01
-4.390469193458557129e-02
-5.719830095767974854e-02
-5.513763427734375000e-02
2.132075428962707520e-01
2.127868384122848511e-01
2.979913949966430664e-01
2.698861062526702881e-01
3.577474355697631836e-01
3.676557242870330811e-01
3.506349921226501465e-01
2.548932731151580811e-01
2.853421568870544434e-01
1.898580938577651978e-01
1.839852631092071533e-01
-4.444511607289314270e-02
-2.152772247791290283e-01
-2.586842775344848633e-01
-1.507171243429183960e-01
-1.829836815595626831e-01
-1.182436272501945496e-01
-1.345231980085372925e-01
-1.367436815053224564e-02
-3.438034281134605408e-02
1.763395220041275024e-02
3.685528039932250977e-02
6.246366724371910095e-02
6.098327040672302246e-02
8.693947643041610718e-02
9.558770060539245605e-02
9.226420521736145020e-02
9.397173672914505005e-02
7.045760750770568848e-02
4.134023934602737427e-02
2.296947315335273743e-02
1.900199986994266510e-02
6.797444541007280350e-03
-1.901114359498023987e-02
-2.425813674926757812e-02
-1.610606722533702850e-02
-1.406783517450094223e-02
-1.904939534142613411e-03
2.324081026017665863e-03
1.040289294905960560e-03
-1.106249910662882030e-04
1.765108201652765274e-03
-2.061092061921954155e-03
-1.909030135720968246e-03
-1.148278242908418179e-03
2.496945438906550407e-03
3.054568776860833168e-03
-9.405663004145026207e-04
-5.348285194486379623e-03
2.296449238201603293e-04
-3.588763764128088951e-03
-8.728548709768801928e-05
4.222148098051548004e-03
8.097314275801181793e-03
3.128662472590804100e-03
1.585662248544394970e-03
1.242733653634786606e-02
1.344055496156215668e-02
1.491281762719154358e-02
8.847134187817573547e-03
1.235955674201250076e-02
1.616813242435455322e-02
1.453891862183809280e-02
1.490993611514568329e-02
8.279854431748390198e-03
6.402563769370317459e-03
2.917205682024359703e-03
2.595616504549980164e-03
-1.378857297822833061e-03
3.414290025830268860e-03
1.069817808456718922e-03
3.339653136208653450e-03
-9.052013047039508820e-03
-5.411532474681735039e-04
-4.775594919919967651e-03
-5.377176683396100998e-03
-3.590096486732363701e-03
9.886497631669044495e-03
1.459602033719420433e-03
1.160467858426272869e-03
1.443492714315652847e-02
1.189623307436704636e-02
1.036217715591192245e-02
7.623614743351936340e-03
2.919457107782363892e-02
1.940459012985229492e-02
2.516007982194423676e-02
2.093452215194702148e-02
1.585941947996616364e-02
1.219264417886734009e-02
3.026521531865000725e-03
-4.901314154267311096e-03
5.648367106914520264e-03
6.786414422094821930e-03
8.168301545083522797e-03
4.924285691231489182e-03
1.587086939252912998e-03
4.635903518646955490e-03
1.788662513718008995e-03
-2.065066073555499315e-04
-1.488320063799619675e-03
3.381324640940874815e-04
-1.921040238812565804e-04
1.125640119425952435e-03
-5.063679418526589870e-04
-3.445921000093221664e-03
-4.241381306201219559e-03
-4.048485308885574341e-03
-9.515248239040374756e-04
-5.991010926663875580e-03
-4.800571128726005554e-03
-7.852421142160892487e-03
-6.222003605216741562e-03
-2.673281356692314148e-03
6.369653856381773949e-04
-3.327741520479321480e-03
-6.853725295513868332e-03
-1.109100994653999805e-03
2.823584247380495071e-03
2.849255455657839775e-03
4.592372104525566101e-03
2.674045274034142494e-03
3.249023109674453735e-03
6.222211755812168121e-03
3.598968731239438057e-03
3.870755899697542191e-03
2.317996462807059288e-03
1.695998711511492729e-03
1.863859128206968307e-03
-1.481831073760986328e-03
4.507873672991991043e-04
8.570300415158271790e-04
-7.353625260293483734e-04
-8.801768417470157146e-04
9.863249724730849266e-04
-4.641069681383669376e-04
1.349286641925573349e-03
-2.017675433307886124e-03
-1.227499917149543762e-03
1.264803868252784014e-04
7.616727380082011223e-04
-1.023415126837790012e-03
1.300887088291347027e-04
-2.795966807752847672e-03
-2.181950723752379417e-03
-1.507550943642854691e-03
-3.975962172262370586e-04
-1.556566799990832806e-03
-1.938353991135954857e-03
-1.549947308376431465e-03
-3.082418988924473524e-04
-4.657162353396415710e-03
-5.156691651791334152e-03
-1.214180374518036842e-03
-5.406705196946859360e-03
-1.617248519323766232e-03
-1.545112812891602516e-03
-1.450450392439961433e-03
-2.261009300127625465e-03
-4.439482931047677994e-03
-4.185723140835762024e-03
-1.304174424149096012e-03
-2.607100410386919975e-03
-1.952831633388996124e-03
-2.804633928462862968e-03
-4.060699138790369034e-03
-4.726514685899019241e-03
-7.878847536630928516e-04
-1.233716262504458427e-03
-3.763007407542318106e-04
-6.582331843674182892e-04
-1.476662873756140471e-06
-2.010846976190805435e-03
2.997784467879682779e-04
-2.371770562604069710e-03
3.471888601779937744e-03
7.911181310191750526e-04
2.064942149445414543e-03
-4.986013285815715790e-03
-7.420098991133272648e-04
7.000523619353771210e-04
2.813828177750110626e-03
3.981498535722494125e-03
5.379982292652130127e-03
1.064941845834255219e-02
9.428145131096243858e-04
8.258196525275707245e-03
3.759739687666296959e-03
1.207859162241220474e-02
1.129359193146228790e-02
1.329564023762941360e-02
7.299258839339017868e-03
2.632549963891506195e-03
-1.583485165610909462e-03
2.467988990247249603e-03
2.794782863929867744e-03
3.004020079970359802e-03
4.482115618884563446e-03
4.341658670455217361e-03
4.178839270025491714e-03
-1.319277333095669746e-03
2.626561326906085014e-04
6.314650527201592922e-04
2.032390329986810684e-03
3.961119335144758224e-03
3.226423403248190880e-03
3.972889389842748642e-04
3.269346780143678188e-04
-1.212110277265310287e-03
-7.032952271401882172e-04
3.092569997534155846e-03
4.700443707406520844e-03
2.485394012182950974e-03
-2.416287316009402275e-04
-2.557550324127078056e-03
4.029467236250638962e-04
7.991027086973190308e-04
-1.072553102858364582e-03
-5.222053732722997665e-05
-1.026785466820001602e-03
-1.352286897599697113e-03
-3.342041978612542152e-03
-5.349511746317148209e-03
-5.130013916641473770e-03
-5.207908339798450470e-03
-5.341961979866027832e-03
-5.482002627104520798e-03
-5.221899598836898804e-03
-6.617051083594560623e-03
-5.999553948640823364e-03
-6.215552333742380142e-03
-6.626469548791646957e-03
-3.748089075088500977e-03
-6.972221657633781433e-03
-6.219434086233377457e-03
-6.828885991126298904e-03
-7.444850169122219086e-03
-6.353326141834259033e-03
-7.980501279234886169e-03
-8.981195278465747833e-03
-6.754315923899412155e-03
-7.310403510928153992e-03
-8.215531706809997559e-03
-5.972690414637327194e-03
-7.205191068351268768e-03
-9.878623299300670624e-03
-8.775139227509498596e-03
-1.019043661653995514e-02
-8.093638345599174500e-03
-7.565815001726150513e-03
-8.992620743811130524e-03
-8.508626371622085571e-03
-6.553525570780038834e-03
-6.733722984790802002e-03
-4.235845059156417847e-03
-7.641205098479986191e-03
-5.194632802158594131e-03
-2.540334826335310936e-03
-1.987174618989229202e-03
-3.984019160270690918e-03
-1.450800802558660507e-03
-3.778177779167890549e-03
-6.093757692724466324e-04
-1.566340331919491291e-03
-4.717402160167694092e-03
-9.906757622957229614e-04
-6.898117717355489731e-03
-7.677256129682064056e-03
-5.488924216479063034e-03
-4.734113346785306931e-03
-4.720884899143129587e-04
-2.903984626755118370e-03
-9.162860922515392303e-03
-5.299919750541448593e-03
-1.127889379858970642e-02
-7.343651726841926575e-03
-8.020780980587005615e-03
-1.624181307852268219e-02
-1.752846501767635345e-02
-2.331778407096862793e-02
-3.069415502250194550e-02
-4.187533259391784668e-02
-3.432480618357658386e-02
-3.362668678164482117e-02
-2.794512733817100525e-02
-9.049813263118267059e-03
2.095341868698596954e-02
-4.058251157402992249e-02
1.068483106791973114e-02
2.918004803359508514e-02
4.100195318460464478e-02
2.572876960039138794e-02
6.451535224914550781e-02
6.804700940847396851e-02
4.909850284457206726e-02
8.642438054084777832e-02
5.698169395327568054e-02
2.060071937739849091e-02
-1.823668740689754486e-02
-2.433478273451328278e-02
-5.829501897096633911e-02
-1.089943796396255493e-01
-8.693389594554901123e-02
-1.525385677814483643e-01
-2.264470756053924561e-01
-1.894522160291671753e-01
-1.432765275239944458e-01
-1.957757025957107544e-01
-2.193757146596908569e-01
-9.855930507183074951e-02
-1.175279095768928528e-01
-6.212565302848815918e-02
8.777983486652374268e-02
6.358809024095535278e-02
1.940230429172515869e-01
1.627596318721771240e-01
3.770887553691864014e-01
3.602948784828186035e-01
3.179756402969360352e-01
3.981893360614776611e-01
3.643375933170318604e-01
2.958556711673736572e-01
3.006823062896728516e-01
1.422157436609268188e-01
-5.938076600432395935e-02
-2.147288322448730469e-01
-2.522456049919128418e-01
-2.575844526290893555e-01
-2.808922529220581055e-01
-1.568546295166015625e-01
-7.221145927906036377e-02
6.501262076199054718e-03
5.418460071086883545e-02
5.462779104709625244e-02
8.319333195686340332e-02
7.956296205520629883e-02
9.273684024810791016e-02
1.110143810510635376e-01
1.195824369788169861e-01
6.618316471576690674e-02
6.947377324104309082e-02
1.870122365653514862e-02
1.941452920436859131e-02
-2.062599919736385345e-02
-1.622534170746803284e-02
-2.076868154108524323e-02
-6.204703822731971741e-03
5.091545754112303257e-04
1.034646853804588318e-02
8.217416703701019287e-03
1.167725585401058197e-02
1.091561093926429749e-02
1.070720236748456955e-02
1.049344614148139954e-02
4.346245899796485901e-03
2.486648736521601677e-03
2.560948720201849937e-03
1.638249377720057964e-03
2.548804040998220444e-03
-1.125855604186654091e-03
-4.403356928378343582e-03
-4.758826456964015961e-03
-4.522244911640882492e-03
-6.991955451667308807e-03
-5.228995811194181442e-03
-6.876489147543907166e-03
-7.943896576762199402e-03
-1.181707344949245453e-02
-1.654959097504615784e-02
-1.262218505144119263e-02
-1.231559924781322479e-02
-6.205844227224588394e-03
-7.702922914177179337e-03
-6.345620378851890564e-03
-2.206888748332858086e-03
-1.676041819155216217e-02
-1.259691640734672546e-02
9.015409275889396667e-03
2.232993952929973602e-02
-1.094809547066688538e-02
1.320464070886373520e-02
2.042380720376968384e-02
1.433536689728498459e-02
1.999246142804622650e-02
2.510731481015682220e-02
2.698772959411144257e-02
2.414608374238014221e-03
2.359749376773834229e-02
4.224851354956626892e-02
2.618769928812980652e-02
3.527429699897766113e-02
3.662550821900367737e-02
2.035685069859027863e-02
3.033689782023429871e-02
5.111412610858678818e-03
1.350017730146646500e-03
2.451137080788612366e-02
2.250338532030582428e-02
1.857560686767101288e-02
1.187734305858612061e-02
7.228106725960969925e-03
1.015041675418615341e-02
5.359699483960866928e-03
-6.333307828754186630e-05
1.349704153835773468e-02
9.561198763549327850e-03
5.238995421677827835e-03
-7.377369794994592667e-03
-9.733473882079124451e-03
-1.215302385389804840e-03
-1.030899584293365479e-02
5.873661488294601440e-03
9.596344316378235817e-04
-4.492123844102025032e-04
-2.209156809840351343e-04
-1.970431953668594360e-02
-1.892365887761116028e-02
-1.954198442399501801e-02
-2.958142757415771484e-02
-3.140532970428466797e-02
3.644742537289857864e-05
-1.699041947722434998e-02
-7.959216833114624023e-03
-2.606423385441303253e-02
-1.098602823913097382e-02
1.339373644441366196e-02
-1.724263653159141541e-02
-5.219859257340431213e-02
-1.013652458786964417e-01
-1.213399618864059448e-01
-1.367343813180923462e-01
-1.161304637789726257e-01
-1.889969855546951294e-01
-2.776470780372619629e-01
-2.415245771408081055e-01
-2.233820408582687378e-01
-1.697682440280914307e-01
-1.430483609437942505e-01
-1.916096210479736328e-01
-7.062116265296936035e-02
-2.847603894770145416e-02
2.263847738504409790e-01
2.697931528091430664e-01
2.347870618104934692e-01
3.815754055976867676e-01
3.277902603149414062e-01
6.027278304100036621e-01
3.611994087696075439e-01
3.299687504768371582e-01
3.246034383773803711e-01
1.727579087018966675e-01
1.631866246461868286e-01
-6.697724759578704834e-02
-3.254273235797882080e-01
-3.610349893569946289e-01
-2.581174373626708984e-01
-1.163592860102653503e-01
-1.044491976499557495e-01
1.008979231119155884e-01
3.734337165951728821e-02
7.827488332986831665e-02
-1.390250213444232941e-02
1.056511828210204840e-04
7.469204068183898926e-02
7.907169312238693237e-02
8.079931139945983887e-02
3.999137505888938904e-02
6.277494877576828003e-02
3.188183531165122986e-02
-7.273163646459579468e-03
-2.140129730105400085e-02
1.266613695770502090e-02
7.960605435073375702e-03
2.066705375909805298e-02
1.161883864551782608e-02
2.447455376386642456e-02
2.046437375247478485e-02
1.958400942385196686e-02
2.109466306865215302e-02
1.629699766635894775e-02
1.136245764791965485e-02
9.119194932281970978e-03
7.056519854813814163e-03
6.389927584677934647e-03
9.268396534025669098e-03
4.324541427195072174e-03
4.628864116966724396e-03
4.105488769710063934e-03
2.940290840342640877e-03
1.853954745456576347e-03
2.182473661378026009e-03
-5.806721746921539307e-04
1.211755734402686357e-04
1.670783851295709610e-03
3.068362362682819366e-03
-1.247168635018169880e-03
-8.634850382804870605e-03
5.740555934607982635e-04
-2.852689241990447044e-03
1.795276300981640816e-03
1.003991928882896900e-03
5.303903948515653610e-03
-1.752055599354207516e-03
-6.293657235801219940e-03
1.110968180000782013e-02
8.917652070522308350e-03
6.456382106989622116e-03
1.157117262482643127e-02
1.242400333285331726e-02
9.741093032062053680e-03
1.010086107999086380e-02
6.351637654006481171e-03
-1.016540639102458954e-02
-5.098559777252376080e-04
1.799145946279168129e-03
7.779107429087162018e-03
-2.120607718825340271e-02
-9.242767468094825745e-03
-9.102419018745422363e-03
-2.405057847499847412e-02
8.258564397692680359e-03
3.149840980768203735e-02
-3.659396665170788765e-03
2.228096360340714455e-03
6.969895679503679276e-03
3.127685934305191040e-02
2.800385095179080963e-02
5.341663584113121033e-02
4.360633715987205505e-02
4.466503858566284180e-02
3.818548843264579773e-02
2.427590079605579376e-02
5.085779819637537003e-03
2.816712716594338417e-03
2.543539926409721375e-02
2.174017205834388733e-02
1.434774510562419891e-02
1.953459531068801880e-02
1.399135775864124298e-02
1.349541731178760529e-02
6.077465135604143143e-03
4.840657580643892288e-03
9.152358397841453552e-03
8.566682226955890656e-03
1.150335278362035751e-02
1.099738292396068573e-02
7.984604686498641968e-03
4.660972859710454941e-03
-7.224724395200610161e-04
-1.337660942226648331e-03
2.989368513226509094e-03
4.673947114497423172e-03
5.460503743961453438e-04
2.062770072370767593e-04
-3.171425196342170238e-04
2.845793263986706734e-03
4.118416458368301392e-03
1.741955638863146305e-03
8.040727116167545319e-04
-3.603677614592015743e-04
-3.389296354725956917e-03
-2.448608865961432457e-03
-4.409343469887971878e-03
-2.499671187251806259e-03
-1.659866305999457836e-03
-7.756921695545315742e-04
-5.880653043277561665e-04
-6.037945277057588100e-04
-8.234301931224763393e-04
-2.921927953138947487e-04
-7.455883896909654140e-04
-1.226265216246247292e-03
-1.306491321884095669e-03
-1.879739109426736832e-03
3.884013276547193527e-04
-6.407049484550952911e-03
-6.672167684882879257e-03
-2.180224051699042320e-03
-5.027011502534151077e-03
2.013757592067122459e-03
-2.206162083894014359e-03
-4.924502223730087280e-03
8.259565802291035652e-04
4.542235285043716431e-03
1.463532354682683945e-02
4.933196119964122772e-03
-5.592924077063798904e-03
-1.351487822830677032e-03
-1.098637748509645462e-02
-1.032604463398456573e-02
-3.907441627234220505e-03
-2.195175271481275558e-03
-3.422446316108107567e-04
-1.349925249814987183e-02
-1.810089498758316040e-02
-1.438996754586696625e-03
-1.801286009140312672e-03
-1.204696111381053925e-02
-1.426210720092058182e-02
-1.462270598858594894e-02
-2.180153131484985352e-02
-1.352755911648273468e-02
-2.733919024467468262e-02
-2.400809526443481445e-02
-1.623605564236640930e-02
-1.550709921866655350e-02
-1.186000928282737732e-02
-3.481076657772064209e-02
-2.070255763828754425e-02
-2.007446810603141785e-02
-4.131865128874778748e-02
-3.837117180228233337e-02
-5.688357353210449219e-02
-7.802459597587585449e-02
-1.313431411981582642e-01
-1.146673932671546936e-01
-1.057533398270606995e-01
-1.859329938888549805e-01
-2.139253169298171997e-01
-1.927873194217681885e-01
-1.971717327833175659e-01
-1.907059103250503540e-01
-1.845974922180175781e-01
-9.682301431894302368e-02
-1.413239091634750366e-01
5.317421630024909973e-03
1.828034520149230957e-01
1.472191810607910156e-01
2.958578467369079590e-01
2.241209447383880615e-01
4.003165364265441895e-01
3.658187985420227051e-01
4.367434680461883545e-01
3.295317292213439941e-01
3.270337581634521484e-01
2.431389391422271729e-01
2.577977478504180908e-01
4.890728741884231567e-02
-1.928236931562423706e-01
-2.580768764019012451e-01
-3.093994557857513428e-01
-1.636638641357421875e-01
-1.563500016927719116e-01
-1.521371454000473022e-01
-1.123017072677612305e-01
-3.003014251589775085e-02
6.439741700887680054e-02
1.031412333250045776e-01
6.284996867179870605e-02
7.706576585769653320e-02
9.928360581398010254e-02
1.143726333975791931e-01
8.624919503927230835e-02
3.640984371304512024e-02
4.272723570466041565e-02
4.703962244093418121e-03
1.120869815349578857e-02
-4.860822577029466629e-03
-3.519198391586542130e-03
2.199037186801433563e-02
5.326728336513042450e-03
1.395508274435997009e-02
1.079354714602231979e-02
1.251325663179159164e-02
1.330449618399143219e-02
1.756963320076465607e-02
1.557007804512977600e-02
1.844526268541812897e-02
1.699020154774188995e-02
1.574980281293392181e-02
1.589069887995719910e-02
1.218195445835590363e-02
7.030293345451354980e-03
9.300866164267063141e-03
9.091879241168498993e-03
7.005858700722455978e-03
3.602108219638466835e-03
1.522878999821841717e-03
3.947369288653135300e-03
-2.892712363973259926e-04
-1.298614661209285259e-03
2.158367773517966270e-03
2.109141787514090538e-03
2.430373802781105042e-03
1.155268284492194653e-03
-2.766744000837206841e-03
-2.147144870832562447e-03
-1.354799326509237289e-02
-1.242107618600130081e-02
-1.059660129249095917e-02
-1.793950051069259644e-02
-1.097868569195270538e-02
1.502493745647370815e-03
-2.889272291213274002e-04
-6.568070501089096069e-03
3.937147557735443115e-03
1.706655696034431458e-02
1.190284918993711472e-02
1.816077902913093567e-02
6.499173119664192200e-03
1.290893834084272385e-02
2.252970077097415924e-02
9.656828828155994415e-03
2.042336016893386841e-02
7.410026155412197113e-03
1.912165316753089428e-03
1.213679090142250061e-02
1.783686317503452301e-02
7.798119913786649704e-03
4.387348890304565430e-03
9.443213231861591339e-03
1.235485915094614029e-02
-4.406366497278213501e-03
-1.428571878932416439e-03
5.301367491483688354e-03
-1.280322787351906300e-03
2.251274883747100830e-03
2.718236530199646950e-03
3.636592067778110504e-03
-1.351094990968704224e-02
-4.190914332866668701e-03
-1.655380474403500557e-04
-1.763394661247730255e-02
-1.679965853691101074e-02
-8.381996303796768188e-03
4.006428061984479427e-04
-3.982170950621366501e-03
7.617441937327384949e-03
-3.598477458581328392e-03
-7.983814924955368042e-03
-1.511817891150712967e-02
-9.135317057371139526e-03
-6.354562472552061081e-03
-1.348365098237991333e-02
-3.004585206508636475e-02
-1.669010706245899200e-02
-2.134017832577228546e-02
-4.244868457317352295e-02
-6.590235233306884766e-02
-9.445241093635559082e-02
-1.025813594460487366e-01
-1.474164724349975586e-01
-1.372538506984710693e-01
-1.319953948259353638e-01
-1.856134980916976929e-01
-1.909362822771072388e-01
-1.418779492378234863e-01
-9.675281494855880737e-02
-1.347003281116485596e-01
5.309505388140678406e-02
7.489021867513656616e-02
4.117805510759353638e-02
3.517800271511077881e-01
2.627132534980773926e-01
4.118010103702545166e-01
3.890371322631835938e-01
4.391129910945892334e-01
3.237004280090332031e-01
3.176771104335784912e-01
2.214977741241455078e-01
1.486089676618576050e-01
-4.005733877420425415e-02
-2.012179344892501831e-01
-2.978339195251464844e-01
-2.878995239734649658e-01
-6.646596640348434448e-02
5.509254336357116699e-02
1.519423723220825195e-02
1.583643071353435516e-02
1.044646929949522018e-02
2.076699770987033844e-02
1.328173908405005932e-03
-6.611901335418224335e-04
9.280725382268428802e-03
6.024065893143415451e-03
2.546847565099596977e-03
-7.803985499776899815e-04
-7.052224595099687576e-03
-9.842037223279476166e-03
-1.066241972148418427e-02
-9.118023328483104706e-03
-1.843977835960686207e-03
2.093451330438256264e-03
-4.372923634946346283e-03
-3.796222852542996407e-03
1.899144263006746769e-03
8.663847111165523529e-04
4.754771012812852859e-03
3.413218539208173752e-03
1.336683519184589386e-03
5.383094772696495056e-03
-1.083310344256460667e-03
-1.059341058135032654e-02
-5.582491867244243622e-03
-1.401993795298039913e-03
-1.629512384533882141e-02
-2.734058164060115814e-02
-2.167716808617115021e-02
-2.034047432243824005e-02
-2.729691192507743835e-02
-7.336099445819854736e-02
-4.120387136936187744e-02
-4.087913408875465393e-02
-6.930717080831527710e-02
-7.726620882749557495e-02
-2.488306164741516113e-02
-5.335989594459533691e-02
-9.378775954246520996e-02
-1.678551174700260162e-02
9.587129577994346619e-03
-4.351726919412612915e-02
-1.377210207283496857e-02
8.251089602708816528e-02
2.939059026539325714e-02
6.401418894529342651e-02
8.206070959568023682e-02
1.855129152536392212e-01
1.814637333154678345e-02
1.935030519962310791e-01
1.196167767047882080e-01
4.873728007078170776e-02
4.194591566920280457e-02
-3.541539981961250305e-02
-1.252858992666006088e-02
-6.726752221584320068e-02
2.447422128170728683e-03
6.984434090554714203e-03
-2.234618645161390305e-03
1.390186045318841934e-02
1.091164536774158478e-02
2.244959352537989616e-03
7.536732126027345657e-03
9.330373257398605347e-03
1.514037884771823883e-02
1.529514603316783905e-02
6.855693645775318146e-03
3.881582990288734436e-03
3.663258627057075500e-03
4.160025157034397125e-03
1.177612785249948502e-02
2.883940469473600388e-03
9.425220079720020294e-03
3.917380701750516891e-03
3.733269870281219482e-03
1.563647063449025154e-03
1.675382722169160843e-03
5.910718813538551331e-03
5.690626800060272217e-03
3.166510956361889839e-03
3.930299077183008194e-03
4.029508680105209351e-03
4.335331730544567108e-03
2.481526462361216545e-04
6.524887867271900177e-04
3.084895433858036995e-03
-2.236537402495741844e-03
-3.250874811783432961e-03
1.243076869286596775e-03
-5.784637760370969772e-04
7.171639008447527885e-04
4.464190278667956591e-04
-1.840617624111473560e-04
5.517375539056956768e-04
7.299755234271287918e-04
-2.311213640496134758e-03
-6.238594651222229004e-04
-4.492805339395999908e-03
-7.838400779291987419e-04
1.986530842259526253e-04
-1.089391997084021568e-03
-2.204181160777807236e-03
-4.457740113139152527e-03
-6.671046838164329529e-03
-4.563970956951379776e-03
-7.361019961535930634e-03
-6.980375852435827255e-03
-7.427118252962827682e-03
-6.747390609234571457e-03
-4.125013947486877441e-03
-8.499031886458396912e-03
-7.912538945674896240e-03
-5.168880335986614227e-03
-9.603904560208320618e-03
-8.734018541872501373e-03
-1.133055053651332855e-02
-7.409166079014539719e-03
-9.811626747250556946e-03
-1.513030007481575012e-02
-1.478264667093753815e-02
-1.404732745140790939e-02
-1.713244616985321045e-02
-1.522590406239032745e-02
-1.852372847497463226e-02
-1.660284213721752167e-02
-1.799586601555347443e-02
-2.731367200613021851e-02
-2.818947657942771912e-02
-3.936806321144104004e-02
-2.901375107467174530e-02
-2.353656291961669922e-02
-1.960684359073638916e-02
-3.728584572672843933e-02
-4.039927199482917786e-02
-3.825384378433227539e-02
-4.852285981178283691e-02
-7.390998303890228271e-02
-6.325058639049530029e-02
-1.145000532269477844e-01
-1.282760053873062134e-01
-1.263798624277114868e-01
-1.159444823861122131e-01
-1.418765634298324585e-01
-1.773987859487533569e-01
-1.218499019742012024e-01
-6.885029375553131104e-02
-8.674254268407821655e-02
1.224237214773893356e-02
1.425324194133281708e-02
1.699510663747787476e-01
9.276399761438369751e-02
3.893970251083374023e-01
3.402307629585266113e-01
3.761129379272460938e-01
4.030466377735137939e-01
4.586727917194366455e-01
1.833367943763732910e-01
3.106986880302429199e-01
-3.334323316812515259e-02
-2.450391799211502075e-01
-3.846801519393920898e-01
-3.291890025138854980e-01
-4.008681774139404297e-01
-3.180034756660461426e-01
-2.370037436485290527e-01
-3.664463385939598083e-02
-5.669609084725379944e-02
2.158587127923965454e-01
2.075668126344680786e-01
1.295459419488906860e-01
2.278185784816741943e-01
1.863522678613662720e-01
2.402452528476715088e-01
1.765091568231582642e-01
1.245187073945999146e-01
6.962870806455612183e-02
2.789732441306114197e-02
2.181047946214675903e-02
-1.880491152405738831e-03
-3.235791996121406555e-02
-3.303181752562522888e-02
-1.227809768170118332e-02
-1.308527123183012009e-02
-3.015691647306084633e-03
-6.499642040580511093e-03
3.865583334118127823e-03
1.298604160547256470e-02
1.805179007351398468e-02
4.885442554950714111e-03
-9.225166868418455124e-04
-8.543075993657112122e-03
-7.160784676671028137e-03
-5.607596132904291153e-03
-8.481265045702457428e-03
-1.047533750534057617e-02
-5.772366654127836227e-03
-2.120238263159990311e-03
1.558863674290478230e-03
-3.629734041169285774e-03
-6.739111617207527161e-03
-6.809394340962171555e-03
-7.945060729980468750e-03
-8.532537147402763367e-03
-1.090064365416765213e-02
-1.081642135977745056e-02
-7.761369459331035614e-03
-9.480374865233898163e-03
-7.000921294093132019e-03
-7.024940568953752518e-03
-3.487177658826112747e-03
-5.529515445232391357e-03
-2.002518158406019211e-05
-2.677704207599163055e-03
-4.637082107365131378e-03
2.997005823999643326e-03
-1.307870820164680481e-02
-7.825345732271671295e-03
-3.841425059363245964e-03
-2.439845819026231766e-03
-8.236452937126159668e-03
-1.676176441833376884e-03
-1.714785350486636162e-03
-8.967409841716289520e-03
2.415804658085107803e-03
1.263407245278358459e-02
7.208781316876411438e-03
4.729618784040212631e-03
3.265246981754899025e-03
2.701027318835258484e-02
1.543137989938259125e-02
3.046992048621177673e-02
2.720545418560504913e-02
2.092848345637321472e-02
9.617992676794528961e-03
2.041673986241221428e-03
1.968789100646972656e-02
8.454272523522377014e-03
3.624879568815231323e-02
2.471072226762771606e-02
2.362802997231483459e-02
2.933448553085327148e-02
1.696841046214103699e-02
-6.690275040455162525e-04
1.471388991922140121e-02
1.679368689656257629e-02
1.906382665038108826e-02
1.559080742299556732e-02
5.441372748464345932e-03
1.237160526216030121e-02
1.553534530103206635e-02
-1.526076579466462135e-03
5.121435038745403290e-03
9.420201182365417480e-03
6.843494251370429993e-03
1.757438993081450462e-03
1.018623472191393375e-03
2.134811831638216972e-03
2.250470919534564018e-03
-4.753119719680398703e-04
-2.271257340908050537e-03
-6.920367013663053513e-04
-7.420007139444351196e-03
-1.039820909500122070e-02
-7.325972430408000946e-03
-7.657032459974288940e-03
-8.671922609210014343e-03
-4.001113586127758026e-03
-6.865379866212606430e-03
-3.879982279613614082e-03
-7.786726346239447594e-04
3.915856126695871353e-03
3.632014384493231773e-03
2.873023506253957748e-03
-6.480843294411897659e-03
1.670959871262311935e-03
-1.641410868614912033e-03
4.070592112839221954e-03
-1.503951381891965866e-03
-1.286753104068338871e-03
-3.021069336682558060e-03
-5.522576626390218735e-03
-8.552956394851207733e-03
-7.733180653303861618e-03
-1.734465127810835838e-03
-4.213956184685230255e-03
-2.355878707021474838e-03
-2.984201069921255112e-03
-4.334963159635663033e-04
1.761935418471693993e-04
-2.210407750681042671e-03
3.221163759008049965e-03
-1.412208192050457001e-03
3.164626657962799072e-03
1.713423756882548332e-03
-1.623628777451813221e-04
5.388434976339340210e-03
4.911608528345823288e-03
1.214961986988782883e-02
1.310891937464475632e-02
9.872765280306339264e-03
1.183736696839332581e-02
-3.021805780008435249e-03
5.924668163061141968e-03
1.054079271852970123e-02
1.408359687775373459e-02
8.189011365175247192e-03
9.312505833804607391e-03
2.553833648562431335e-03
-3.807249711826443672e-03
-4.952553659677505493e-03
-6.328909657895565033e-03
6.004069000482559204e-03
4.314904101192951202e-03
-1.849310239776968956e-03
-8.548963814973831177e-03
-2.347598318010568619e-03
-7.613825611770153046e-03
-8.819947019219398499e-03
-1.379476301372051239e-02
-1.586586795747280121e-02
-9.055727161467075348e-03
-1.416536420583724976e-02
-8.138285949826240540e-03
-9.631504304707050323e-03
-1.262544654309749603e-02
-8.903237059712409973e-03
-6.144959013909101486e-03
-8.415103657171130180e-04
-3.756950376555323601e-03
3.413238329812884331e-03
5.582512822002172470e-03
2.792037557810544968e-03
1.517029386013746262e-02
5.132537335157394409e-03
1.463024597615003586e-02
1.359419059008359909e-02
1.112318411469459534e-02
1.581765897572040558e-02
3.116236999630928040e-03
5.051469895988702774e-03
5.910118576139211655e-03
1.232794672250747681e-02
6.117438897490501404e-03
5.470793694257736206e-03
6.215856876224279404e-03
1.485299551859498024e-03
2.318495884537696838e-03
1.717879669740796089e-03
4.041690845042467117e-03
1.242040074430406094e-03
-5.924172583036124706e-04
3.057534573599696159e-03
-5.984463496133685112e-04
1.958423526957631111e-03
4.877669853158295155e-04
-4.115520976483821869e-03
-6.582356989383697510e-03
-3.476501675322651863e-03
1.626359298825263977e-04
-3.649721620604395866e-03
-9.674224420450627804e-04
5.024155601859092712e-03
3.395859850570559502e-03
4.251619800925254822e-03
-2.991715678945183754e-03
-5.035226349718868732e-04
-8.204118348658084869e-03
6.529044825583696365e-03
-3.799470141530036926e-03
7.950263679958879948e-04
6.145133171230554581e-03
4.096338991075754166e-03
-2.301986794918775558e-03
-1.132544875144958496e-02
7.481884211301803589e-03
1.076043117791414261e-02
1.262048631906509399e-02
1.730465330183506012e-02
1.993741467595100403e-02
1.463747490197420120e-02
1.113011129200458527e-02
2.535770181566476822e-03
8.433188777416944504e-04
4.549999255686998367e-03
1.007596217095851898e-02
5.757658742368221283e-03
8.665767498314380646e-03
3.984622657299041748e-03
3.528714412823319435e-03
6.074782460927963257e-03
2.101005520671606064e-03
4.743790253996849060e-03
5.092281848192214966e-03
3.872698172926902771e-03
1.442021224647760391e-03
-3.515331307426095009e-03
-6.604122463613748550e-04
1.051700673997402191e-03
-1.241236575879156590e-03
1.496307202614843845e-03
8.470037719234824181e-04
-8.731868583709001541e-04
-1.629694481380283833e-03
-8.491202606819570065e-05
-2.754009328782558441e-03
3.596527967602014542e-04
-2.692571142688393593e-03
-2.678058110177516937e-03
-2.970981877297163010e-03
-3.708448028191924095e-03
-1.464329543523490429e-03
-1.133820507675409317e-03
-4.067806527018547058e-03
-3.011740744113922119e-03
-3.483075881376862526e-03
-3.418862819671630859e-03
-3.293712157756090164e-03
-2.044774126261472702e-03
-2.230999758467078209e-03
-3.143193665891885757e-03
-2.484821714460849762e-03
-2.091785892844200134e-03
-5.954055581241846085e-03
-6.041594780981540680e-03
-2.284972928464412689e-03
-6.645998917520046234e-03
-5.267794243991374969e-03
-6.026494782418012619e-03
-2.469143131747841835e-03
-1.266697770915925503e-03
-4.894321784377098083e-03
-5.500444676727056503e-03
-8.420415222644805908e-03
-7.689786609262228012e-03
-9.846639819443225861e-03
-8.190230466425418854e-03
-2.433076035231351852e-03
-4.165851976722478867e-03
-1.314582861959934235e-02
-9.488834999501705170e-03
-1.049767155200242996e-02
-2.093815617263317108e-02
-6.737345363944768906e-03
-1.274613477289676666e-02
-1.334293931722640991e-02
-1.734607107937335968e-02
-1.722222194075584412e-02
-1.209590304642915726e-02
-2.447199076414108276e-02
-2.498980984091758728e-02
-1.698546111583709717e-02
-1.287089288234710693e-02
-1.934886164963245392e-02
-2.004093118011951447e-02
-1.036296971142292023e-02
-1.385767571628093719e-02
-9.816127829253673553e-03
2.562992274761199951e-03
-4.599407315254211426e-03
-3.652506042271852493e-03
-1.116335298866033554e-02
-3.653722233138978481e-04
-2.699681324884295464e-03
-1.930895820260047913e-02
-3.714589029550552368e-02
-9.555107355117797852e-02
-8.034416288137435913e-02
-7.155968248844146729e-02
-1.623923331499099731e-01
-1.937314718961715698e-01
-2.017452865839004517e-01
-1.837842166423797607e-01
-2.233334928750991821e-01
-1.489577591419219971e-01
-1.628035306930541992e-01
-1.809849143028259277e-01
-5.717303976416587830e-02
1.817258894443511963e-01
1.413114834576845169e-02
2.596584260463714600e-01
1.939837038516998291e-01
4.008403122425079346e-01
3.782668411731719971e-01
4.500121474266052246e-01
2.873081564903259277e-01
3.587086796760559082e-01
2.628746628761291504e-01
2.270823866128921509e-01
2.287798374891281128e-02
-1.433617472648620605e-01
-2.477799952030181885e-01
-2.280438393354415894e-01
-1.219956502318382263e-01
-3.377658501267433167e-02
-8.984292298555374146e-02
-5.636084079742431641e-02
1.578279305249452591e-03
2.470908686518669128e-02
9.751153993420302868e-04
1.497699506580829620e-02
2.666825987398624420e-02
5.136183649301528931e-02
4.824405163526535034e-02
4.494123160839080811e-02
4.997096210718154907e-02
3.768583387136459351e-02
3.767878934741020203e-02
2.861809544265270233e-02
1.929640397429466248e-02
1.893948949873447418e-02
7.548900786787271500e-03
5.757514853030443192e-03
5.942208692431449890e-03
-5.342032760381698608e-03
1.030813343822956085e-02
7.593235932290554047e-03
4.008665215224027634e-03
-4.240740090608596802e-03
2.950469730421900749e-03
3.817221149802207947e-04
1.997462939471006393e-03
3.690986894071102142e-03
3.114426741376519203e-03
-4.825007636100053787e-03
-9.030934423208236694e-03
-1.000649388879537582e-02
-1.307268999516963959e-02
-1.835354045033454895e-02
-7.689366582781076431e-03
-2.500114217400550842e-02
-1.732126437127590179e-02
-6.668839138001203537e-03
1.773028285242617130e-03
3.776573576033115387e-04
7.192598655819892883e-03
2.298652753233909607e-02
1.552616804838180542e-02
2.489035204052925110e-02
2.765792608261108398e-02
3.234244883060455322e-02
3.879496827721595764e-02
2.924649231135845184e-02
3.648684546351432800e-02
2.003180608153343201e-02
1.753570698201656342e-02
6.128256674855947495e-03
1.314744539558887482e-02
4.821065813302993774e-03
-1.112865516915917397e-03
2.529141725972294807e-03
1.034077163785696030e-02
-1.484853588044643402e-02
1.606234908103942871e-02
-2.620056271553039551e-03
-1.293609011918306351e-02
-1.012954115867614746e-02
1.166950445622205734e-02
-2.580935321748256683e-02
-6.041051819920539856e-03
4.756837710738182068e-02
3.347638621926307678e-02
7.231536321341991425e-03
2.125619351863861084e-02
2.953385934233665466e-02
1.340798009186983109e-02
4.194083809852600098e-02
4.892578721046447754e-02
2.105801366269588470e-02
1.103659532964229584e-02
3.805540874600410461e-02
2.344779111444950104e-02
7.781257852911949158e-03
1.852893084287643433e-02
8.269222453236579895e-03
9.669899940490722656e-03
9.226790629327297211e-03
5.674478132277727127e-03
1.052696537226438522e-02
6.645315792411565781e-03
-3.637367160990834236e-03
3.278458490967750549e-03
4.368435591459274292e-03
2.362611470744013786e-03
5.019565578550100327e-03
4.009057302027940750e-03
-6.513230968266725540e-03
-4.597289953380823135e-03
8.473944035358726978e-05
-5.291256587952375412e-03
-7.144893519580364227e-03
-9.634838439524173737e-03
-3.626864636316895485e-03
-3.212537616491317749e-03
1.399574102833867073e-03
2.182771451771259308e-03
-4.052571486681699753e-03
6.865886505693197250e-03
3.943717456422746181e-04
3.121440298855304718e-03
3.521067555993795395e-03
5.272745154798030853e-03
6.328879389911890030e-03
2.542814239859580994e-03
-1.880142372101545334e-03
3.335616318508982658e-03
-2.171799307689070702e-03
-4.008448682725429535e-03
-8.816055487841367722e-04
2.274211030453443527e-03
-7.904312224127352238e-04
-1.055486616678535938e-03
-2.627387177199125290e-03
5.149097414687275887e-04
-4.642183892428874969e-03
7.620595279149711132e-04
-5.472871940582990646e-03
-9.984420612454414368e-04
-1.147412694990634918e-03
1.454419456422328949e-03
6.640042178332805634e-03
3.293807152658700943e-03
6.716349162161350250e-03
2.227438148111104965e-03
-5.582676967605948448e-04
2.517150016501545906e-03
8.974382653832435608e-03
9.740635752677917480e-03
7.697554770857095718e-03
1.261556055396795273e-02
8.077740669250488281e-03
1.001747325062751770e-02
1.085019577294588089e-02
8.989694528281688690e-03
9.981808252632617950e-03
4.895008169114589691e-03
-5.550083005800843239e-04
1.039076130837202072e-02
1.102969050407409668e-02
9.955897927284240723e-03
6.613434758037328720e-03
8.788668550550937653e-03
8.037660270929336548e-03
6.417475175112485886e-03
6.882166489958763123e-03
1.101019978523254395e-02
8.247603662312030792e-03
3.290818072855472565e-03
-8.888700394891202450e-04
1.932905288413167000e-03
4.209105856716632843e-03
5.631258245557546616e-03
-2.187422709539532661e-03
2.663006773218512535e-03
2.045387402176856995e-03
3.379993606358766556e-03
3.740919753909111023e-03
2.530972473323345184e-03
6.382345687597990036e-03
-4.694347153417766094e-04
-5.388913210481405258e-03
-3.309770021587610245e-03
-7.455621380358934402e-05
-2.624706132337450981e-03
-1.981867942959070206e-03
-4.459931515157222748e-03
-1.948116114363074303e-03
-5.929317791014909744e-03
-2.282668370753526688e-03
-5.803484469652175903e-03
-7.047331426292657852e-03
-6.169448141008615494e-03
-5.907755810767412186e-03
-1.152025302872061729e-03
-9.664226323366165161e-03
-6.030333694070577621e-03
-1.320240553468465805e-03
-4.720997065305709839e-03
-4.158838186413049698e-03
-1.031314581632614136e-02
-2.262068213894963264e-03
-1.769835595041513443e-03
2.212048973888158798e-03
1.242052204906940460e-02
8.607641793787479401e-03
8.025468327105045319e-03
-4.249320365488529205e-03
-3.994431812316179276e-03
-4.462679382413625717e-03
3.886412363499403000e-03
1.062720734626054764e-02
9.264951571822166443e-03
9.618759155273437500e-03
-4.154425114393234253e-03
-2.826085779815912247e-03
-3.780145663768053055e-03
3.483487293124198914e-03
7.238259539008140564e-03
9.416601620614528656e-03
8.776485919952392578e-03
3.062494099140167236e-03
-6.488376762717962265e-03
-2.657651901245117188e-03
1.018027891404926777e-03
-6.743961130268871784e-04
3.803528379648923874e-03
6.987664382904767990e-04
3.844577819108963013e-03
-4.282557405531406403e-03
-3.749547060579061508e-03
-1.813353737816214561e-03
-3.879608120769262314e-03
-4.733349662274122238e-03
-7.260794518515467644e-04
-3.654628992080688477e-03
-5.241079255938529968e-03
-8.434398099780082703e-03
-8.553439751267433167e-03
-8.436217904090881348e-03
-6.318515632301568985e-03
-8.477594703435897827e-03
-8.462486788630485535e-03
-7.111467421054840088e-03
-7.729562465101480484e-03
-6.852534599602222443e-03
-8.623119443655014038e-03
-9.090144187211990356e-03
-9.160658344626426697e-03
-9.703049436211585999e-03
-1.050979364663362503e-02
-9.494723752140998840e-03
-1.000738888978958130e-02
-1.089972630143165588e-02
-6.116925738751888275e-03
-7.682213559746742249e-03
-8.797382935881614685e-03
-1.035662088543176651e-02
-7.203310262411832809e-03
-5.760302767157554626e-03
-4.889815580099821091e-03
-8.060516789555549622e-03
-7.843039929866790771e-03
-7.046303246170282364e-03
-9.772013872861862183e-03
-7.673459593206644058e-03
-9.840399958193302155e-03
-7.924388162791728973e-03
-6.211259402334690094e-03
-4.033276345580816269e-03
-2.824105555191636086e-03
7.570513989776372910e-03
5.115300416946411133e-03
1.498997327871620655e-03
-9.701833128929138184e-03
-3.084765048697590828e-03
5.037473514676094055e-03
6.702589802443981171e-03
-9.429030120372772217e-03
-1.188448816537857056e-02
-4.684876184910535812e-03
-1.129752676934003830e-02
-3.266580030322074890e-02
-3.397735208272933960e-02
-3.411083249375224113e-03
-8.473752066493034363e-03
-2.368970960378646851e-02
-4.028285294771194458e-02
-2.148589305579662323e-02
-3.965269774198532104e-02
-5.341945588588714600e-02
-5.718144029378890991e-02
-5.906245857477188110e-02
-4.424243792891502380e-02
-3.475159406661987305e-02
-6.330293416976928711e-02
-2.492928504943847656e-02
-2.214601449668407440e-02
-5.669133737683296204e-03
1.894402690231800079e-02
6.999058276414871216e-02
4.237312823534011841e-02
4.479720070958137512e-02
9.479404240846633911e-02
9.988963603973388672e-02
4.229949042201042175e-02
7.151030004024505615e-02
-6.927944719791412354e-02
-5.272606387734413147e-03
-7.303740084171295166e-02
-2.204504162073135376e-01
-3.292033076286315918e-01
-2.106247991323471069e-01
-2.604796588420867920e-01
-3.453166186809539795e-01
-2.515787184238433838e-01
-1.807508319616317749e-01
-3.168038427829742432e-01
-6.995672732591629028e-02
1.932905912399291992e-01
4.036401584744453430e-02
1.963811963796615601e-01
2.788311243057250977e-01
5.185251832008361816e-01
3.603214621543884277e-01
6.334702968597412109e-01
3.368843793869018555e-01
4.070892930030822754e-01
2.949928343296051025e-01
3.021476864814758301e-01
2.523874398320913315e-03
-1.167856454849243164e-01
-3.057400882244110107e-01
-2.577949166297912598e-01
-1.740004122257232666e-01
-5.150482803583145142e-02
-1.286229938268661499e-01
-3.776198625564575195e-02
-5.507941916584968567e-02
1.027812715619802475e-02
6.106334924697875977e-02
-6.046361289918422699e-03
5.448330566287040710e-02
1.035833805799484253e-01
1.109609454870223999e-01
7.347705960273742676e-02
7.835134118795394897e-02
8.991093933582305908e-02
6.011548265814781189e-02
5.892247334122657776e-02
5.004370957612991333e-02
5.149780213832855225e-02
1.416178140789270401e-02
1.832713000476360321e-02
1.579927280545234680e-02
1.006801705807447433e-02
1.148381456732749939e-02
6.772957742214202881e-03
-1.720729167573153973e-03
1.020716410130262375e-02
-9.081664611585438251e-04
-2.014131285250186920e-03
-1.216613035649061203e-02
-8.130602538585662842e-03
-1.279702037572860718e-02
-1.576567813754081726e-02
-3.495176509022712708e-02
-2.529947087168693542e-02
-1.396713033318519592e-02
-5.815104395151138306e-02
-4.036068916320800781e-02
-3.551220521330833435e-02
-3.048162721097469330e-02
-5.052764341235160828e-02
-1.354991924017667770e-02
9.153493680059909821e-03
-2.437402680516242981e-02
4.371998831629753113e-02
5.779529735445976257e-02
4.784148558974266052e-02
6.600567698478698730e-02
4.864732548594474792e-02
9.371306747198104858e-02
7.023068517446517944e-02
8.766404539346694946e-02
6.824959814548492432e-02
4.896085709333419800e-02
3.993254899978637695e-02
3.310611471533775330e-02
8.765888400375843048e-03
-1.031440310180187225e-02
1.312948018312454224e-02
-5.056575872004032135e-03
1.321393251419067383e-02
-8.576820604503154755e-03
-1.050800643861293793e-02
6.187128601595759392e-04
1.437605451792478561e-02
-3.830171376466751099e-02
1.920894253998994827e-03
3.085006587207317352e-02
4.721070080995559692e-02
4.077640920877456665e-02
6.496798992156982422e-02
3.580087795853614807e-02
1.997477747499942780e-02
1.520050596445798874e-02
2.707857638597488403e-02
4.277049750089645386e-02
2.903418615460395813e-02
3.913205489516258240e-02
3.097607381641864777e-02
1.223200559616088867e-02
1.319287251681089401e-02
1.215710304677486420e-02
1.900783181190490723e-02
1.878851465880870819e-02
1.044538524001836777e-02
9.189921431243419647e-03
8.224198594689369202e-03
7.859130389988422394e-03
5.987296812236309052e-03
9.851068258285522461e-03
6.189746782183647156e-03
4.564036615192890167e-03
8.111486677080392838e-04
1.346637494862079620e-03
1.544531434774398804e-03
2.289214637130498886e-03
2.381813712418079376e-03
-1.484539126977324486e-03
-7.192869088612496853e-04
-1.566065126098692417e-03
-2.599988132715225220e-03
-2.266713709104806185e-04
9.034024697029963136e-05
1.163139473646879196e-03
-1.100242952816188335e-03
-6.086756475269794464e-03
-2.065011765807867050e-03
-9.667254926171153784e-05
2.464553108438849449e-04
-2.640910446643829346e-03
-2.315739635378122330e-03
-3.950859885662794113e-03
-3.055827692151069641e-03
-4.682746250182390213e-03
-6.240122485905885696e-03
-5.865167826414108276e-03
-5.861070007085800171e-03
-8.751199580729007721e-03
-5.030983127653598785e-03
-3.998600877821445465e-03
-4.603069741278886795e-03
-4.575015045702457428e-03
-7.804283872246742249e-03
-7.817585952579975128e-03
-9.875431656837463379e-03
-7.635398767888545990e-03
-8.835268206894397736e-03
-7.429753895848989487e-03
-4.527200479060411453e-03
-5.580415949225425720e-03
-5.449394229799509048e-03
-6.856312043964862823e-03
-3.844035789370536804e-03
-4.224822856485843658e-03
-5.997415632009506226e-03
-6.376046221703290939e-03
-6.989632733166217804e-03
-7.332426495850086212e-03
-8.586931042373180389e-03
-1.148963440209627151e-02
-8.175569586455821991e-03
-8.257366716861724854e-03
-8.167972788214683533e-03
-9.738266468048095703e-03
-9.408392943441867828e-03
-9.764788672327995300e-03
-7.765718735754489899e-03
-9.143853560090065002e-03
-1.017473731189966202e-02
-6.270236801356077194e-03
-7.968341000378131866e-03
-6.832165177911520004e-03
-1.040217652916908264e-02
-7.147726137191057205e-03
-8.344883099198341370e-03
-8.869977667927742004e-03
-1.301427371799945831e-02
-9.480284526944160461e-03
-1.114758476614952087e-02
-1.090915687382221222e-02
-1.117844041436910629e-02
-9.668323211371898651e-03
-1.126724295318126678e-02
-7.060020230710506439e-03
-7.380068767815828323e-03
-5.033675115555524826e-03
-9.626667015254497528e-04
-9.360283613204956055e-03
-2.358986297622323036e-03
-3.159606596454977989e-03
4.189508035778999329e-03
4.245851188898086548e-03
6.512925960123538971e-03
2.803317969664931297e-03
2.285687020048499107e-03
-8.852075785398483276e-03
-8.232242427766323090e-03
4.959921352565288544e-03
4.040054511278867722e-03
3.910468425601720810e-03
3.052238374948501587e-03
-9.662633528932929039e-04
1.751182368025183678e-03
-1.485327724367380142e-03
-2.928511239588260651e-03
5.797019111923873425e-04
-9.084482444450259209e-04
-3.664873074740171432e-03
-5.148307420313358307e-03
-3.949394915252923965e-03
-5.308056250214576721e-03
-2.020959509536623955e-03
-4.773223772644996643e-03
-5.252918228507041931e-03
-2.610980998724699020e-03
-5.140279419720172882e-03
-3.625688375905156136e-03
-6.407437380403280258e-03
-5.145707633346319199e-03
-5.393252708017826080e-03
-4.307094030082225800e-03
-9.069666848517954350e-04
-2.915739605668932199e-04
2.223103219876065850e-04
-2.293477067723870277e-03
-3.356053493916988373e-03
-2.643485087901353836e-03
-2.382335020229220390e-03
-3.047731006518006325e-03
-2.125448547303676605e-03
-2.560895401984453201e-03
-1.268180552870035172e-03
-1.642734743654727936e-03
-1.276057912036776543e-03
-1.315186731517314911e-03
-1.529939589090645313e-03
-1.956732245162129402e-03
-2.309811534360051155e-03
-1.216431148350238800e-03
-2.280876273289322853e-03
-3.751333802938461304e-03
-2.868306357413530350e-03
-2.809691941365599632e-03
-5.903567653149366379e-04
7.343388278968632221e-05
-2.394830575212836266e-03
-3.087057848460972309e-06
1.347291981801390648e-05
-2.192505053244531155e-04
-2.262706169858574867e-03
-8.802072843536734581e-04
2.786816796287894249e-03
-1.061756629496812820e-03
-1.069637015461921692e-03
-4.541554022580385208e-03
-1.975922379642724991e-03
-1.694960985332727432e-03
-3.338932059705257416e-03
-2.301085507497191429e-03
-1.425377326086163521e-03
-5.076823290437459946e-03
-4.457237664610147476e-03
-5.723561160266399384e-03
-7.100978400558233261e-03
-4.263226408511400223e-03
-5.722730420529842377e-03
-3.913390450179576874e-03
-5.646351259201765060e-03
-4.541302099823951721e-03
-4.167109262198209763e-03
-6.121351383626461029e-03
-7.293543312698602676e-03
-5.504947155714035034e-03
-5.902915261685848236e-03
-5.933821201324462891e-03
-5.203407723456621170e-03
-5.823567975312471390e-03
-5.810782313346862793e-03
-5.172817967832088470e-03
-5.115909501910209656e-03
-4.502357915043830872e-03
-6.799370050430297852e-03
-2.813940634950995445e-03
1.347583718597888947e-03
-2.220938913524150848e-03
1.189255272038280964e-04
-3.486348781734704971e-03
-1.132870325818657875e-03
2.391560468822717667e-03
-2.009213669225573540e-03
-4.793073050677776337e-03
2.413862850517034531e-03
4.594007041305303574e-03
8.352603763341903687e-03
1.805083127692341805e-03
-6.468752399086952209e-03
3.946860320866107941e-03
8.710709400475025177e-03
4.535967484116554260e-03
5.103144794702529907e-03
1.553879305720329285e-02
7.372560445219278336e-03
6.989270914345979691e-03
1.481783203780651093e-02
5.015025846660137177e-03
6.380816921591758728e-03
1.050583203323185444e-03
-5.642464384436607361e-03
-2.304001711308956146e-03
8.551729843020439148e-03
3.955205902457237244e-03
-7.471731863915920258e-03
-8.874065242707729340e-03
-6.334467325359582901e-03
-5.444263108074665070e-03
-6.449747830629348755e-03
-9.588330984115600586e-03
-7.932115346193313599e-03
-7.334051653742790222e-03
-1.009266451001167297e-02
-1.365445367991924286e-02
-2.423212304711341858e-02
-2.335380576550960541e-02
-1.325985789299011230e-02
-1.873788982629776001e-02
-8.138781413435935974e-03
-3.046667901799082756e-03
-2.001918852329254150e-02
5.443631205707788467e-03
8.739813230931758881e-03
1.576602086424827576e-02
8.186270482838153839e-03
1.998838223516941071e-02
1.278188452124595642e-02
4.426917061209678650e-03
2.725453302264213562e-02
-8.911545155569911003e-04
-3.320200368762016296e-02
-6.383034586906433105e-02
-7.143450528383255005e-02
-7.498017698526382446e-02
-1.142625063657760620e-01
-1.115020141005516052e-01
-1.370940804481506348e-01
-1.250073015689849854e-01
-9.917876124382019043e-02
-9.179829806089401245e-02
-5.732108280062675476e-02
-8.791124075651168823e-02
1.442882232367992401e-02
9.749589860439300537e-02
7.584131509065628052e-02
2.415931820869445801e-01
1.416609585285186768e-01
2.951700687408447266e-01
2.557424306869506836e-01
2.558136880397796631e-01
2.152213305234909058e-01
1.671252250671386719e-01
1.011220365762710571e-01
9.554025717079639435e-03
-1.202954724431037903e-01
-1.680105924606323242e-01
-1.333639770746231079e-01
-1.527255922555923462e-01
-9.064702689647674561e-02
-5.825276300311088562e-02
-6.155332550406455994e-02
-8.514784276485443115e-03
-7.625542115420103073e-03
-2.763008000329136848e-03
-2.931075636297464371e-03
5.630186945199966431e-02
9.713703766465187073e-04
2.333745546638965607e-02
3.659675270318984985e-02
4.484257847070693970e-02
3.792189806699752808e-02
5.095989257097244263e-02
3.348454833030700684e-02
8.276466280221939087e-03
2.121832594275474548e-02
1.353916432708501816e-02
1.024213712662458420e-02
-1.198973041027784348e-03
1.707707159221172333e-02
1.925232633948326111e-02
1.138961035758256912e-02
1.563204638659954071e-02
1.458528544753789902e-02
1.579540967941284180e-02
9.226218797266483307e-03
5.150381941348314285e-03
7.418456953018903732e-03
3.745706286281347275e-03
6.173446308821439743e-03
-1.246354309841990471e-03
2.096234587952494621e-03
5.510677117854356766e-03
3.301498247310519218e-03
5.792788229882717133e-03
5.919840652495622635e-03
4.101828671991825104e-03
2.397469652350991964e-04
1.012449152767658234e-03
-4.924907116219401360e-04
2.347545465454459190e-03
4.721370059996843338e-03
2.027165377512574196e-03
5.074352491647005081e-03
5.900016985833644867e-03
4.234767053276300430e-03
5.389416124671697617e-03
4.233718849718570709e-03
2.806876087561249733e-03
7.600599899888038635e-03
5.748202092945575714e-03
6.319991312921047211e-03
6.036181468516588211e-03
1.482698018662631512e-03
3.170656040310859680e-03
-1.014929381199181080e-03
-1.304401434026658535e-03
4.026980139315128326e-03
7.213219651021063328e-04
7.204405847005546093e-04
1.481971354223787785e-03
-8.264677599072456360e-04
-1.432913355529308319e-03
-3.130017546936869621e-03
-4.033016506582498550e-03
-4.547068092506378889e-04
-1.716802595183253288e-03
-1.125867944210767746e-03
-3.966864664107561111e-03
-3.834750503301620483e-03
5.721097113564610481e-04
3.936850698664784431e-04
-9.137965971603989601e-04
-3.605375532060861588e-03
-2.686339663341641426e-03
-3.713999409228563309e-03
5.321357166394591331e-04
3.649917198345065117e-03
3.019054885953664780e-03
5.557770840823650360e-03
2.805323339998722076e-03
2.108374144881963730e-03
-1.606627483852207661e-03
2.905525965616106987e-03
2.079111523926258087e-03
8.451077155768871307e-03
7.801536004990339279e-03
2.127407118678092957e-03
5.648370366543531418e-03
-2.696809126064181328e-03
-9.525021305307745934e-04
7.008600980043411255e-03
2.292918739840388298e-03
-1.367140840739011765e-02
1.278026774525642395e-02
1.171007193624973297e-02
2.136439271271228790e-02
2.548814378678798676e-02
1.952347159385681152e-02
1.695743016898632050e-02
1.918271416798233986e-03
-1.719323545694351196e-02
-1.489164866507053375e-02
1.928084343671798706e-02
1.427815575152635574e-02
-8.276530541479587555e-03
-9.416177868843078613e-03
8.207588689401745796e-04
-7.641221396625041962e-03
5.458817817270755768e-03
3.605263773351907730e-04
-1.391830947250127792e-02
-4.980399738997220993e-03
-1.069316919893026352e-02
-1.660354435443878174e-02
-2.305837348103523254e-02
-4.026570171117782593e-02
-2.334283478558063507e-02
-2.228249423205852509e-02
-1.979520311579108238e-03
-2.699952572584152222e-02
-1.006592903286218643e-02
-7.083889562636613846e-03
-4.588297381997108459e-02
-4.774334281682968140e-02
-4.461158812046051025e-02
-5.438083782792091370e-02
-1.266686767339706421e-01
-1.577010154724121094e-01
-1.194977238774299622e-01
-2.243405878543853760e-01
-2.448120266199111938e-01
-2.276838868856430054e-01
-2.575314939022064209e-01
-2.886329591274261475e-01
-2.269086390733718872e-01
-1.504573225975036621e-01
-1.865858435630798340e-01
-9.077199548482894897e-02
1.004732623696327209e-01
2.529934346675872803e-01
1.555466353893280029e-01
4.767262339591979980e-01
2.282563000917434692e-01
4.552753865718841553e-01
4.972370266914367676e-01
4.883373975753784180e-01
3.557648956775665283e-01
3.284747004508972168e-01
2.201195955276489258e-01
1.787048280239105225e-01
-8.199603180401027203e-04
-1.056434214115142822e-01
-3.228982985019683838e-01
-3.178341686725616455e-01
-1.232691183686256409e-01
-9.805659204721450806e-02
-1.370519697666168213e-01
-2.153779007494449615e-02
4.603952914476394653e-02
7.420588284730911255e-02
7.157803326845169067e-02
6.867760419845581055e-02
2.974772080779075623e-02
1.001479104161262512e-01
5.515827983617782593e-02
4.441303387284278870e-02
4.903821274638175964e-03
2.591428346931934357e-02
2.754626981914043427e-02
7.151781581342220306e-03
-1.143318507820367813e-02
1.154892961494624615e-03
1.979598402976989746e-02
1.328323222696781158e-02
7.019395008683204651e-03
4.180844873189926147e-03
9.823912754654884338e-03
8.867460303008556366e-03
9.316029958426952362e-03
7.835467346012592316e-03
1.106624398380517960e-02
1.399901229888200760e-02
1.039535272866487503e-02
8.354185149073600769e-03
8.676519617438316345e-03
5.991579033434391022e-03
4.407896194607019424e-03
2.029595663771033287e-03
6.495964713394641876e-03
2.620353596284985542e-03
-2.984069753438234329e-03
-9.062695316970348358e-04
4.230875056236982346e-03
-5.377711204346269369e-06
1.243421866092830896e-05
-1.953167608007788658e-03
5.852086469531059265e-04
9.619331685826182365e-04
-1.994120655581355095e-03
-6.160018965601921082e-03
2.488855272531509399e-03
-1.851421082392334938e-03
-3.772715339437127113e-03
-1.613662345334887505e-03
-1.953489147126674652e-03
-8.681472390890121460e-03
-8.487704209983348846e-03
-5.661205388605594635e-03
-4.396385513246059418e-03
-2.411648863926529884e-03
-4.825060721486806870e-03
7.993989624083042145e-03
1.791649963706731796e-03
1.723237801343202591e-03
2.299381233751773834e-02
2.352373674511909485e-02
6.078852340579032898e-03
2.461189404129981995e-02
3.865840658545494080e-02
4.099731892347335815e-02
2.303290739655494690e-02
4.871154204010963440e-02
3.801539540290832520e-02
3.150271996855735779e-02
3.474533185362815857e-02
1.957242377102375031e-02
2.169546298682689667e-02
1.093032862991094589e-02
8.394216187298297882e-03
9.361959062516689301e-03
2.070597931742668152e-02
1.384469214826822281e-02
6.635195575654506683e-03
8.981813676655292511e-03
1.409726589918136597e-02
6.996159441769123077e-03
-5.058823153376579285e-04
6.021115463227033615e-03
5.198449362069368362e-03
3.846025560051202774e-03
-4.704544320702552795e-03
-7.853355258703231812e-03
-6.566674914211034775e-03
-1.222881115972995758e-02
5.186689086258411407e-03
-5.754380254074931145e-04
-9.833227377384901047e-04
-5.595908500254154205e-03
-6.179753225296735764e-03
-1.465821079909801483e-02
-2.240630798041820526e-02
-2.731005288660526276e-02
-2.377733960747718811e-02
-1.630084402859210968e-02
-2.382137440145015717e-02
-2.289135009050369263e-02
-2.673593722283840179e-02
-2.752177231013774872e-02
-9.360508993268013000e-03
-1.245001610368490219e-02
-2.944421023130416870e-02
-5.852681398391723633e-02
-4.525920003652572632e-02
-3.146361932158470154e-02
-9.879720956087112427e-02
-1.183464452624320984e-01
-1.387728750705718994e-01
-1.460646539926528931e-01
-1.601190567016601562e-01
-1.655868291854858398e-01
-1.610462814569473267e-01
-2.576008141040802002e-01
-1.817713230848312378e-01
-3.322334215044975281e-02
-4.900028184056282043e-02
6.136866286396980286e-02
3.440394625067710876e-02
3.180701732635498047e-01
2.024462521076202393e-01
4.409379065036773682e-01
4.796461462974548340e-01
2.750934660434722900e-01
3.888868987560272217e-01
4.066195487976074219e-01
3.137999475002288818e-01
1.592250615358352661e-01
-9.781261906027793884e-03
-2.960679233074188232e-01
-3.607158362865447998e-01
-3.418164253234863281e-01
-1.139896139502525330e-01
-9.826881438493728638e-02
-1.142849866300821304e-02
2.122788876295089722e-02
9.829097241163253784e-02
3.038379736244678497e-02
6.848022341728210449e-02
-1.464280299842357635e-02
1.007211729884147644e-01
4.817560315132141113e-02
5.753654614090919495e-02
2.561626769602298737e-02
1.732105016708374023e-02
1.120989862829446793e-02
1.076974440366029739e-02
6.202975753694772720e-03
1.152463909238576889e-02
2.442222461104393005e-02
1.801924221217632294e-02
1.148559898138046265e-02
1.093288138508796692e-02
8.044895716011524200e-03
-6.892688106745481491e-04
2.990719163790345192e-03
7.552151801064610481e-04
-1.190518727526068687e-03
3.593799192458391190e-03
-1.583387842401862144e-03
2.260416746139526367e-03
6.311413832008838654e-03
-6.002340931445360184e-03
-8.369587361812591553e-03
-1.226627174764871597e-02
-1.357104070484638214e-02
-1.656876131892204285e-02
-9.507775306701660156e-03
-1.305408403277397156e-02
-1.127213612198829651e-02
-1.057040318846702576e-02
-6.911897566169500351e-03
-9.306911379098892212e-03
-5.592860747128725052e-03
2.246293734060600400e-04
9.484180249273777008e-03
2.830842044204473495e-03
7.464087102562189102e-03
-2.691387198865413666e-03
5.526213441044092178e-03
1.314584258943796158e-02
1.094458438456058502e-02
7.019497454166412354e-03
1.211266312748193741e-02
3.790577873587608337e-03
5.158412270247936249e-03
8.300025947391986847e-03
1.223806943744421005e-02
1.111512631177902222e-02
8.682576939463615417e-03
8.044661954045295715e-03
1.380725298076868057e-03
-3.020431147888302803e-03
-1.450772746466100216e-03
1.051873620599508286e-02
6.469893734902143478e-03
1.064774394035339355e-02
4.056708421558141708e-03
4.739739932119846344e-03
3.455311292782425880e-03
7.626205217093229294e-03
1.388475764542818069e-02
7.690545637160539627e-03
1.092316489666700363e-02
3.337098984047770500e-03
1.928508654236793518e-02
1.009959168732166290e-02
1.568421162664890289e-02
1.752760075032711029e-02
1.837648451328277588e-02
1.761561632156372070e-02
1.387141086161136627e-02
1.994878053665161133e-03
3.909419290721416473e-03
8.015949279069900513e-03
5.110797937959432602e-03
1.267746090888977051e-02
1.314415689557790756e-02
1.223518140614032745e-02
3.409493947401642799e-03
7.039941381663084030e-03
7.066886406391859055e-03
7.699097041040658951e-03
2.662369050085544586e-03
-3.505999047774821520e-04
-1.850503031164407730e-05
9.181659552268683910e-04
1.032378524541854858e-03
-3.452155215200036764e-04
2.887412556447088718e-04
1.016841270029544830e-03
-2.102997852489352226e-03
-5.016405601054430008e-03
-1.376693253405392170e-03
-3.205619286745786667e-03
-2.725649392232298851e-03
-5.415169056504964828e-03
-7.149761077016592026e-03
-5.166579969227313995e-03
-3.481518011540174484e-03
-2.950105816125869751e-03
-8.884354028850793839e-04
5.336923059076070786e-04
2.597164711914956570e-04
-8.942079730331897736e-03
-7.165195420384407043e-04
3.437387524172663689e-03
-3.008667554240673780e-04
-2.876322483643889427e-03
-1.512315822765231133e-03
-1.648953882977366447e-03
-2.633989788591861725e-03
-2.401653444394469261e-03
-4.246587399393320084e-03
-1.034551113843917847e-02
-6.668036337941884995e-03
-1.118344254791736603e-02
-9.529643692076206207e-03
-1.099572610110044479e-02
-1.116272527724504471e-02
-6.641094107180833817e-03
4.570003598928451538e-03
1.762502943165600300e-03
4.230363119859248400e-04
-6.549637764692306519e-03
-4.084763117134571075e-03
1.963661750778555870e-03
1.035200525075197220e-02
6.563068367540836334e-03
8.373720571398735046e-03
5.687842145562171936e-03
5.700394976884126663e-04
-2.714786445721983910e-03
-5.398442037403583527e-03
-2.724460791796445847e-04
8.420727681368589401e-05
-9.925155900418758392e-04
7.098369533196091652e-04
1.030011335387825966e-04
-8.098743855953216553e-04
-3.454144578427076340e-03
1.524209365015849471e-04
-4.324131645262241364e-03
-2.952707931399345398e-03
-3.304413985460996628e-04
-1.597070833668112755e-03
1.204244326800107956e-03
-3.711484838277101517e-03
-1.296972623094916344e-03
-1.749366754665970802e-03
2.705429214984178543e-04
-6.787443999201059341e-04
7.116473279893398285e-04
1.071814447641372681e-03
-7.671192870475351810e-04
-2.688125707209110260e-03
-3.820227924734354019e-03
-3.983657807111740112e-04
-1.490106689743697643e-03
-8.892194018699228764e-04
-1.802128739655017853e-03
-2.426342573016881943e-03
-3.648266196250915527e-03
-5.020136013627052307e-04
-1.546065905131399632e-04
-9.139277972280979156e-05
-4.918245598673820496e-03
-3.010170999914407730e-03
-2.396999858319759369e-03
-1.514993491582572460e-03
-3.098197048529982567e-03
-3.432771191000938416e-03
-1.831171102821826935e-03
-1.541822566650807858e-03
-3.742714878171682358e-03
-7.687857141718268394e-04
-2.442471450194716454e-03
-1.288138562813401222e-03
-4.436580638866871595e-04
-2.589494688436388969e-03
7.976370397955179214e-04
1.947733107954263687e-03
-4.494245629757642746e-03
-1.675462001003324986e-03
-3.121606539934873581e-03
-3.095920896157622337e-03
2.359688980504870415e-03
-7.744950708001852036e-04
1.876893686130642891e-03
8.889454184100031853e-04
2.287263516336679459e-03
-5.447716917842626572e-03
-3.267732972744852304e-04
4.657873883843421936e-03
-8.320491178892552853e-05
-5.704914219677448273e-03
-6.911462405696511269e-04
-1.878086710348725319e-03
-8.409869857132434845e-03
-1.739954389631748199e-02
-1.767408475279808044e-02
-8.034492842853069305e-03
-6.133005023002624512e-03
-9.577106684446334839e-03
-4.030875395983457565e-03
-1.108796987682580948e-02
-1.722427457571029663e-02
-1.635120436549186707e-02
-1.710510626435279846e-02
-3.228684142231941223e-02
-2.406855300068855286e-02
-1.351131871342658997e-02
-2.101906575262546539e-02
-2.610358595848083496e-02
-1.321893930435180664e-02
-7.621704600751399994e-03
-1.470310520380735397e-02
-5.255280062556266785e-03
6.312676239758729935e-03
3.743275767192244530e-03
-1.353998295962810516e-02
2.376713091507554054e-03
-3.466677619144320488e-03
-2.173701487481594086e-02
-6.642198562622070312e-02
-9.515065699815750122e-02
-1.350464969873428345e-01
-1.560584306716918945e-01
-1.920212805271148682e-01
-1.751548945903778076e-01
-2.262407094240188599e-01
-2.682623267173767090e-01
-1.853766888380050659e-01
-9.660549461841583252e-02
-1.457782089710235596e-01
-2.054697088897228241e-02
5.349782481789588928e-02
2.201122343540191650e-01
1.356134712696075439e-01
4.307967126369476318e-01
3.563419282436370850e-01
4.256702959537506104e-01
4.165050089359283447e-01
4.960211217403411865e-01
2.298316508531570435e-01
3.481041193008422852e-01
6.254354864358901978e-02
-6.248330324888229370e-02
-2.444489300251007080e-01
-2.163729369640350342e-01
-3.407266139984130859e-01
-2.200367301702499390e-01
-1.224050819873809814e-01
-1.306361798197031021e-02
1.005237456411123276e-02
6.987711042165756226e-02
3.521013632416725159e-02
2.616561390459537506e-02
6.292173266410827637e-02
1.193016245961189270e-01
1.003624796867370605e-01
7.187116891145706177e-02
4.533286392688751221e-02
4.004172608256340027e-02
6.964916829019784927e-03
1.621091365814208984e-02
1.880460046231746674e-02
5.991388577967882156e-03
1.629066653549671173e-02
3.524715546518564224e-03
5.213959142565727234e-03
5.428864620625972748e-03
8.961301296949386597e-03
3.642950439825654030e-03
8.348749950528144836e-03
-1.720729749649763107e-03
1.247885520569980145e-04
1.741417217999696732e-03
-9.803772903978824615e-03
-1.058530993759632111e-02
-1.113511715084314346e-02
-1.136508770287036896e-02
-1.499549951404333115e-02
-1.637702248990535736e-02
-1.822159625589847565e-02
-1.891032606363296509e-02
-1.988919824361801147e-02
-3.658502548933029175e-02
-1.990627869963645935e-02
-1.888979040086269379e-02
-2.621855586767196655e-02
-2.575769461691379547e-02
-6.478510331362485886e-03
-2.010780200362205505e-02
-2.583136409521102905e-02
2.776626497507095337e-02
2.073968760669231415e-02
1.440660189837217331e-02
1.607750914990901947e-02
5.599184706807136536e-02
5.898628383874893188e-02
5.115015059709548950e-02
5.900548771023750305e-02
2.763048186898231506e-02
4.293087124824523926e-02
3.617656603455543518e-02
3.253212431445717812e-03
-1.603347249329090118e-02
9.112426196224987507e-04
-7.979910587891936302e-04
-2.981620281934738159e-02
-1.079354900866746902e-03
-2.803360857069492340e-02
-2.703735418617725372e-02
-1.076924521476030350e-02
2.458022348582744598e-02
-1.458238996565341949e-02
-1.306195370852947235e-02
3.798358887434005737e-02
3.757134452462196350e-02
-1.594371907413005829e-02
4.135315772145986557e-03
4.832339659333229065e-02
2.674514986574649811e-02
6.122847273945808411e-02
6.380505114793777466e-02
4.389246553182601929e-02
7.199534215033054352e-03
4.603306949138641357e-02
3.215672075748443604e-02
7.134599145501852036e-04
1.807633228600025177e-02
1.581516861915588379e-02
2.201895415782928467e-02
1.842949725687503815e-02
5.846496671438217163e-03
1.006872020661830902e-02
8.559180423617362976e-03
5.106835160404443741e-04
5.867179483175277710e-03
1.103092730045318604e-02
4.424686543643474579e-03
5.560907069593667984e-03
6.443512625992298126e-03
2.043757122009992599e-04
3.440203610807657242e-03
3.051566192880272865e-03
1.943348906934261322e-03
2.135201357305049896e-03
1.035881694406270981e-03
3.203761298209428787e-04
5.845963023602962494e-04
5.091685452498495579e-04
7.970566512085497379e-04
1.553455134853720665e-03
-9.852598886936903000e-04
2.474458422511816025e-03
1.313451328314840794e-03
2.463133540004491806e-03
-1.823459286242723465e-03
-4.507438279688358307e-05
2.613191958516836166e-03
1.722019398584961891e-03
2.213586121797561646e-03
5.997198168188333511e-04
-2.573360688984394073e-05
2.112356014549732208e-07
-1.399558968842029572e-04
1.105037750676274300e-03
1.858066068962216377e-03
3.556277137249708176e-03
4.703300655819475651e-04
1.366783166304230690e-03
1.004605670459568501e-03
1.034045242704451084e-03
-3.756440943107008934e-03
1.763265347108244896e-03
1.753535354509949684e-03
2.629454247653484344e-03
2.264114096760749817e-03
-2.934364601969718933e-04
2.883580047637224197e-03
1.309669110924005508e-03
3.989084158092737198e-03
5.848002037964761257e-04
1.104112947359681129e-03
-2.019082196056842804e-03
-3.174123703502118587e-04
-7.792084943503141403e-05
-1.792949857190251350e-03
-2.305018715560436249e-03
9.971039835363626480e-04
-2.890470437705516815e-03
1.490699360147118568e-04
-1.903578755445778370e-03
-2.032073680311441422e-04
-2.609640592709183693e-03
-2.265351591631770134e-03
-2.626650035381317139e-03
-2.894489327445626259e-03
-9.474221151322126389e-04
-3.428754163905978203e-03
4.946122644469141960e-04
-1.599794195499271154e-04
-2.951153786852955818e-03
-2.023213775828480721e-03
-1.745030866004526615e-03
-3.858561976812779903e-04
-1.421482767909765244e-03
7.164895068854093552e-04
2.820718334987759590e-03
-1.109715085476636887e-04
-2.367652952671051025e-03
-1.978713553398847580e-03
2.582303946837782860e-03
5.584121099673211575e-04
5.741356872022151947e-04
1.359944464638829231e-03
4.834758001379668713e-04
1.494865398854017258e-03
-4.443128593266010284e-03
-2.385250059887766838e-03
2.020568354055285454e-04
9.160133195109665394e-04
-3.356795059517025948e-04
-8.475614595226943493e-04
-2.341534243896603584e-03
-1.272101071663200855e-03
-2.072249539196491241e-03
-2.311656717211008072e-03
-3.124799812212586403e-03
-1.394341699779033661e-03
-1.372034545056521893e-03
-3.409617114812135696e-03
-2.596584148705005646e-03
-2.091419650241732597e-03
-2.072745468467473984e-03
-5.429166485555469990e-04
1.053838059306144714e-04
-1.904243254102766514e-04
6.432154332287609577e-04
1.445909379981458187e-03
-4.474520683288574219e-04
1.356719643808901310e-03
6.315498612821102142e-04
1.397595740854740143e-03
5.323230288922786713e-05
-1.701346947811543941e-03
-1.327491831034421921e-03
-3.262309590354561806e-03
6.385700544342398643e-04
8.762982324697077274e-04
1.751434872858226299e-03
1.492023118771612644e-03
-1.004027668386697769e-03
-5.128126940689980984e-04
-7.773081888444721699e-04
4.471793770790100098e-03
8.609760552644729614e-04
4.712569527328014374e-03
2.291820710524916649e-03
-9.907483763527125120e-05
-3.496558929327875376e-04
2.237400738522410393e-03
7.039178628474473953e-03
1.864136895164847374e-03
3.244691994041204453e-03
-2.450665459036827087e-03
-1.224476960487663746e-03
-5.319127812981605530e-04
-1.081965863704681396e-03
-4.836992593482136726e-04
3.611719235777854919e-03
6.992265116423368454e-05
-2.102548023685812950e-03
-7.088641636073589325e-03
-8.155159652233123779e-03
-3.895293222740292549e-03
-3.033734858036041260e-03
-4.343949723988771439e-03
-3.615907859057188034e-03
-2.788171404972672462e-03
-3.215967910364270210e-03
-2.485545817762613297e-03
-5.275225266814231873e-04
-6.320233223959803581e-04
-1.000243122689425945e-03
1.750054652802646160e-04
-6.887629861012101173e-04
7.250919006764888763e-04
1.587016507983207703e-03
1.932725717779248953e-05
5.746089154854416847e-04
2.852569741662591696e-05
9.934138506650924683e-04
1.882252865470945835e-03
4.856621380895376205e-04
1.425184542313218117e-03
9.286473505198955536e-04
1.443727640435099602e-03
1.138987950980663300e-03
1.329793594777584076e-03
-9.142255294136703014e-05
-1.211455673910677433e-04
2.453196211718022823e-04
3.755866200663149357e-04
1.749202259816229343e-03
2.846169285476207733e-03
-5.666263168677687645e-04
-2.328906906768679619e-03
-1.226147869601845741e-03
-3.723998961504548788e-04
5.341880023479461670e-05
2.321641193702816963e-03
2.212080173194408417e-03
2.863998757675290108e-03
1.102896407246589661e-03
-1.025150995701551437e-03
2.641436876729130745e-04
2.965130843222141266e-03
2.306314185261726379e-03
-1.405057497322559357e-03
-3.554787486791610718e-03
-1.058235298842191696e-03
-1.864363090135157108e-03
-1.020487048663198948e-03
-3.094351850450038910e-03
1.419805339537560940e-04
-2.764898119494318962e-03
-1.029997132718563080e-03
5.818840581923723221e-04
-3.431400051340460777e-03
-5.037109367549419403e-03
-4.370082635432481766e-03
-5.880269221961498260e-03
-3.726556664332747459e-03
-3.763908986002206802e-03
-6.457088980823755264e-03
-5.260534118860960007e-03
-1.601007767021656036e-03
-5.368754733353853226e-03
-4.381328821182250977e-03
-3.947777673602104187e-03
-4.261171910911798477e-03
-4.824357107281684875e-03
-3.666408127173781395e-03
-2.203314332291483879e-03
-3.325908910483121872e-03
-2.395421499386429787e-03
-2.937573241069912910e-03
-1.984327565878629684e-03
7.493476150557398796e-04
1.132255885750055313e-03
-4.264057148247957230e-03
5.942630232311785221e-04
1.641924493014812469e-03
-1.115897553972899914e-03
-3.662134287878870964e-03
-3.373711078893393278e-04
-6.986957043409347534e-03
-1.205784501507878304e-03
-8.067399263381958008e-03
2.072002971544861794e-04
-3.491701325401663780e-03
2.290402306243777275e-03
3.009189618751406670e-03
4.861314781010150909e-03
3.568965010344982147e-03
2.775806933641433716e-03
1.283716224133968353e-02
9.853808209300041199e-03
1.604506373405456543e-02
9.817058220505714417e-03
4.631437361240386963e-03
2.354815136641263962e-03
6.615580525249242783e-03
3.244829131290316582e-03
9.368919418193399906e-04
2.124531893059611320e-03
-9.156478336080908775e-04
-2.171778818592429161e-03
1.506862463429570198e-05
-1.514243660494685173e-03
9.021348087117075920e-04
1.843384350650012493e-03
1.414088765159249306e-03
2.337839454412460327e-03
-3.556492738425731659e-04
4.354903358034789562e-04
3.498734440654516220e-03
2.274016384035348892e-03
3.390044206753373146e-03
1.341071445494890213e-03
1.059474190697073936e-03
-1.175285084173083305e-03
9.504608460702002048e-04
1.560309319756925106e-03
1.589260762557387352e-03
-2.619143575429916382e-03
1.875358866527676582e-03
1.372966216877102852e-03
2.361940569244325161e-04
-4.812829429283738136e-04
2.315270394319668412e-04
-5.559737910516560078e-04
1.041917479597032070e-03
5.844872794114053249e-04
-2.721988712437450886e-04
1.411354634910821915e-03
6.778609822504222393e-04
7.068290724419057369e-04
-2.140082884579896927e-03
-5.754954181611537933e-04
1.319514005444943905e-03
1.552392728626728058e-03
-1.699455548077821732e-03
-4.271111451089382172e-03
2.550885546952486038e-04
-1.797982957214117050e-03
2.889727707952260971e-03
-1.464452827349305153e-03
2.216164954006671906e-03
-1.467901398427784443e-03
-2.858568215742707253e-03
-1.901984680444002151e-03
-6.809917977079749107e-04
-2.619919367134571075e-03
9.977628942579030991e-04
-1.550765591673552990e-03
-3.081255999859422445e-04
-3.485348774120211601e-03
-2.605011686682701111e-03
3.763652406632900238e-03
-7.660851115360856056e-04
1.545729581266641617e-03
1.070907106623053551e-03
1.078858040273189545e-03
-1.106026466004550457e-04
-1.548851607367396355e-03
1.313370070420205593e-03
1.087007345631718636e-03
2.559450222179293633e-04
-5.824775435030460358e-04
-8.515624213032424450e-04
-6.786625017412006855e-04
3.416994586586952209e-04
4.597174411173909903e-04
-4.780181916430592537e-04
6.799481343477964401e-05
-8.185061160475015640e-04
-1.554926624521613121e-03
5.731908604502677917e-04
-1.679323031567037106e-04
-1.123209600336849689e-03
-2.016258891671895981e-03
-2.731138374656438828e-03
-1.284453086555004120e-03
-1.561844721436500549e-03
1.196262310259044170e-04
-1.164770103059709072e-03
-6.340911204461008310e-05
-4.929567221552133560e-04
-2.710934262722730637e-03
-2.076453762128949165e-03
-1.721339067444205284e-03
-9.679174982011318207e-04
-2.897698432207107544e-04
-5.836819764226675034e-04
5.594047252088785172e-04
6.590340053662657738e-04
-9.856051765382289886e-04
-1.351650804281234741e-03
-2.664128784090280533e-03
-3.126414492726325989e-03
-4.168837331235408783e-04
-1.741195912472903728e-03
-2.362157683819532394e-03
-1.443465589545667171e-03
-1.091681187972426414e-03
-1.734288875013589859e-03
-2.504548523575067520e-03
-2.482111565768718719e-03
-1.588753424584865570e-03
-1.422222238034009933e-03
-2.434146590530872345e-03
-3.286028048023581505e-03
-3.052648389711976051e-03
-2.124221995472908020e-03
-4.252187907695770264e-03
-2.801412716507911682e-03
-3.885512007400393486e-03
-3.092294093221426010e-03
-2.891502808779478073e-03
-2.231107093393802643e-03
3.494851989671587944e-04
8.274877909570932388e-04
1.243133447133004665e-03
-6.768112070858478546e-04
-6.303733680397272110e-04
2.141793724149465561e-03
1.678151311352849007e-03
1.072563813067972660e-03
-6.201245705597102642e-04
-1.376607338897883892e-03
-8.036038489080965519e-04
-4.307700786739587784e-03
-1.134948804974555969e-03
-2.692592330276966095e-03
-2.905811881646513939e-03
-9.284877451136708260e-04
-1.802434679120779037e-03
-2.950920723378658295e-03
-2.510688966140151024e-03
-3.444516332820057869e-03
-1.517389318905770779e-03
-2.929713809862732887e-03
-2.289615804329514503e-04
-1.189224887639284134e-03
-1.632846397114917636e-04
-2.841571113094687462e-03
-2.506200398784130812e-04
5.654596025124192238e-04
9.786266600713133812e-04
1.608554855920374393e-03
2.693407237529754639e-03
2.846363699063658714e-03
4.258144326740875840e-05
-1.137131825089454651e-03
5.539668927667662501e-05
4.339013248682022095e-03
3.486246801912784576e-03
3.244585823267698288e-03
1.369483768939971924e-03
1.579543924890458584e-03
-1.862455275841057301e-03
4.559463122859597206e-04
7.019110489636659622e-04
3.170777112245559692e-03
-1.073990133590996265e-04
1.662679249420762062e-03
1.140587031841278076e-03
3.800326958298683167e-04
4.535226617008447647e-05
2.079259138554334641e-03
8.207227801904082298e-04
-1.026897807605564594e-03
2.017448190599679947e-03
-2.423542464384809136e-04
-1.406442024745047092e-03
-1.353785861283540726e-03
1.275868038646876812e-03
-1.985613023862242699e-03
-7.392521365545690060e-04
-2.617290709167718887e-03
-3.027586732059717178e-03
-5.066296434961259365e-04
-1.729593379423022270e-03
-2.490715822204947472e-03
-3.299678675830364227e-03
-3.365859854966402054e-03
-2.688395092263817787e-03
-1.377412991132587194e-05
-2.861383603885769844e-03
-3.294837893918156624e-03
-1.476888661272823811e-03
-2.315996680408716202e-03
-2.290523378178477287e-03
-3.416348248720169067e-03
-3.924353979527950287e-03
-1.537548028863966465e-03
-1.617446076124906540e-03
-1.161461463198065758e-03
-1.456808531656861305e-03
-8.153388043865561485e-04
-7.217553211376070976e-04
-9.132132399827241898e-04
-3.573689027689397335e-04
2.823641989380121231e-05
9.965742938220500946e-04
-7.344674086198210716e-04
1.236225944012403488e-05
1.277230097912251949e-03
-9.734238265082240105e-04
4.133458132855594158e-04
9.383981814607977867e-04
1.069532590918242931e-03
1.347341807559132576e-03
6.432830123230814934e-04
2.175872214138507843e-03
3.009853884577751160e-03
1.338682603091001511e-03
1.743417233228683472e-03
4.090009722858667374e-03
2.891888841986656189e-03
2.766665536910295486e-03
-2.220730530098080635e-03
-2.835015300661325455e-03
-5.185774061828851700e-04
2.815619343891739845e-03
1.704195979982614517e-03
1.298703951761126518e-03
-1.996649196371436119e-03
-1.058425754308700562e-03
-1.424380810931324959e-03
-9.161499328911304474e-04
-4.589965566992759705e-03
-4.337253514677286148e-03
-5.135973449796438217e-03
-2.421610988676548004e-03
-1.722491462714970112e-03
-1.757368445396423340e-03
-1.162535627372562885e-04
8.174602407962083817e-05
-8.823195239529013634e-04
-1.952904276549816132e-03
-7.198946550488471985e-04
-2.195846522226929665e-03
-1.931934384629130363e-03
-5.868742591701447964e-04
-1.206813263706862926e-03
-4.928065463900566101e-04
-5.290216649882495403e-04
-6.919869920238852501e-04
-8.160067372955381870e-04
5.819979123771190643e-04
2.065009903162717819e-05
1.605161931365728378e-03
3.831888083368539810e-03
9.208211558870971203e-04
4.735571565106511116e-05
2.810556441545486450e-03
-7.693804218433797359e-04
3.468704875558614731e-03
2.493470441550016403e-03
1.161975669674575329e-03
-6.733747432008385658e-05
4.437732277438044548e-04
-3.498332109302282333e-03
-5.201833846513181925e-05
2.461651805788278580e-03
2.582051092758774757e-03
-1.656082342378795147e-03
-1.372724305838346481e-03
-2.803059294819831848e-03
-3.579655662178993225e-03
-1.175461802631616592e-03
-4.295338876545429230e-03
-9.537898586131632328e-04
-1.266321633011102676e-03
-9.832314681261777878e-04
1.712371828034520149e-03
-4.390723071992397308e-03
-2.984207123517990112e-03
-1.540835946798324585e-04
-1.139452215284109116e-03
-1.245965599082410336e-03
-4.950446076691150665e-03
-4.588228184729814529e-03
-5.751478485763072968e-03
1.192690222524106503e-03
-1.556015806272625923e-03
6.849166238680481911e-04
1.214646035805344582e-03
2.489532576873898506e-03
1.604512799531221390e-03
-1.115901512093842030e-03
-2.610598690807819366e-03
3.688118420541286469e-03
3.751202719286084175e-03
5.852263886481523514e-03
-6.881431909278035164e-04
1.029698294587433338e-03
-4.770411760546267033e-04
6.314550410024821758e-05
1.665719435550272465e-03
4.893941804766654968e-03
1.198097364977002144e-03
-5.057750968262553215e-04
5.192245589569211006e-04
1.753405231283977628e-04
-4.852995043620467186e-04
1.475057448260486126e-03
1.950531965121626854e-03
2.461701631546020508e-03
1.126085175201296806e-03
2.218913985416293144e-03
4.232069477438926697e-05
1.593404216691851616e-03
1.734449062496423721e-03
2.814816776663064957e-03
6.468746578320860863e-04
2.330033807083964348e-03
-2.201311290264129639e-03
2.121572615578770638e-04
1.328435027971863747e-03
9.120031027123332024e-04
-2.352962968870997429e-03
1.216847915202379227e-03
1.035732217133045197e-03
-1.287888735532760620e-04
-3.057322464883327484e-03
-5.645931814797222614e-04
-1.434894511476159096e-03
8.563011651858687401e-04
2.086526248604059219e-03
2.337312325835227966e-03
2.763688098639249802e-03
7.400432368740439415e-04
-2.062301384285092354e-03
-3.029155777767300606e-06
2.175626112148165703e-03
1.291651395149528980e-03
-9.027522755786776543e-04
1.551901223137974739e-03
4.918260965496301651e-04
3.971546888351440430e-03
1.045788172632455826e-03
2.513322513550519943e-03
2.029394963756203651e-03
7.932707667350769043e-04
-5.387273267842829227e-04
-9.628668776713311672e-04
2.837726380676031113e-03
-1.478924823459237814e-04
1.415394246578216553e-03
1.649249461479485035e-04
-1.206297194585204124e-03
1.309354265686124563e-04
1.751691568642854691e-03
2.272962592542171478e-03
4.843849455937743187e-04
1.493931049481034279e-03
-5.168288771528750658e-05
2.183545148000121117e-03
1.056736684404313564e-03
2.797610824927687645e-03
4.124520055484026670e-04
3.119980450719594955e-03
-1.644970325287431479e-04
6.357127567753195763e-04
-5.897498340345919132e-05
-1.388019416481256485e-03
1.791427144780755043e-03
-2.451299224048852921e-04
8.159864228218793869e-04
-1.092539634555578232e-03
-1.011323649436235428e-03
-1.363170798867940903e-03
-6.291802274063229561e-04
-1.853272668085992336e-03
-5.723617505282163620e-04
-8.856032509356737137e-04
-1.178801991045475006e-03
1.802479091566056013e-04
-3.043782198801636696e-04
6.131371483206748962e-04
7.362796459347009659e-04
4.299686988815665245e-04
-1.279353047721087933e-03
9.527365909889340401e-04
9.084739140234887600e-04
4.224617732688784599e-04
1.220003236085176468e-03
1.447750837542116642e-03
1.247431035153567791e-03
-8.378392085433006287e-04
-9.974064305424690247e-04
-9.433663799427449703e-04
-7.373544503934681416e-04
-9.944852208718657494e-04
-7.544683758169412613e-04
-1.129808602854609489e-03
-3.143569338135421276e-04
-2.804059768095612526e-04
-4.987115971744060516e-04
-2.081173006445169449e-03
-5.907169543206691742e-04
-1.430973992682993412e-03
1.345001510344445705e-04
-5.368323763832449913e-04
1.221752259880304337e-03
5.299575277604162693e-04
-7.836796576157212257e-04
-1.323749078437685966e-03
-2.647880930453538895e-03
-1.713516307063400745e-03
-1.764219254255294800e-03
-1.908969017677009106e-03
-1.323295873589813709e-03
-1.188047695904970169e-03
-4.294390964787453413e-04
-9.721841197460889816e-04
-3.762163687497377396e-04
-1.139360028901137412e-04
1.928247045725584030e-03
1.962482230737805367e-03
1.059593283571302891e-03
3.287870204076170921e-04
3.265626262873411179e-03
-4.172068729531019926e-04
5.511087947525084019e-04
5.960073322057723999e-04
1.934047671966254711e-03
8.219248265959322453e-04
-2.875121310353279114e-03
-3.603472374379634857e-03
-5.018777213990688324e-03
-2.985974075272679329e-03
-1.606790930964052677e-03
-3.183538094162940979e-03
-2.246882650069892406e-04
-1.125077949836850166e-03
-1.102184876799583435e-03
-5.298936739563941956e-04
-9.425038006156682968e-04
1.056407578289508820e-03
-1.137077342718839645e-04
1.570402062498033047e-03
6.616462487727403641e-04
1.068720477633178234e-03
1.554826158098876476e-04
8.594911778345704079e-04
-2.501120325177907944e-04
-1.891161082312464714e-03
-3.241607919335365295e-03
-3.034953260794281960e-03
-2.376138931140303612e-03
8.524748263880610466e-04
-1.376671949401497841e-03
-1.207559835165739059e-03
-6.239861249923706055e-06
-9.482559980824589729e-04
-8.570899954065680504e-04
-2.311067422851920128e-03
-1.367118209600448608e-03
-2.598387654870748520e-03
-4.284019232727587223e-04
-1.409903634339570999e-03
-2.373879309743642807e-03
-1.106178038753569126e-03
-1.486289664171636105e-03
-3.701554960571229458e-04
-1.846911036409437656e-03
1.712423632852733135e-03
-1.452016644179821014e-03
1.127960276789963245e-04
-2.134134410880506039e-04
-6.886490155011415482e-05
3.573400899767875671e-04
-8.135895477607846260e-04
-9.893868118524551392e-04
-1.788328518159687519e-03
6.383251165971159935e-04
-1.328891376033425331e-03
9.034246904775500298e-04
3.408861230127513409e-04
5.856353673152625561e-04
-1.333822729066014290e-03
3.580334014259278774e-04
4.574782215058803558e-04
-1.559467636980116367e-04
2.024194254772737622e-04
-1.591522712260484695e-03
-1.540333149023354053e-03
-2.006537688430398703e-04
-2.392439782852306962e-04
6.146740051917731762e-04
-1.043047872371971607e-03
7.455020677298307419e-04
5.071976920589804649e-04
2.368129324167966843e-03
1.108898897655308247e-03
5.046254373155534267e-04
-9.699370129965245724e-04
-8.372785523533821106e-04
1.506463624536991119e-03
1.635709661059081554e-03
5.764552042819559574e-04
1.451873220503330231e-03
3.042520023882389069e-03
2.576073165982961655e-04
1.784781925380229950e-03
2.074380638077855110e-03
1.730711432173848152e-03
5.715102888643741608e-04
1.447826274670660496e-03
1.505219610407948494e-03
2.112608170136809349e-03
1.682929578237235546e-03
5.430390592664480209e-04
1.498227473348379135e-03
-6.512816762551665306e-04
-6.614216254092752934e-04
2.083354163914918900e-03
3.776951460167765617e-03
2.595790196210145950e-03
1.149568357504904270e-03
2.177630318328738213e-03
2.543685026466846466e-03
-3.780133847612887621e-04
-2.490995917469263077e-03
-1.138206454925239086e-03
2.119211480021476746e-03
3.029645886272192001e-03
-7.881945930421352386e-05
1.721260370686650276e-03
-1.441761734895408154e-03
-1.711050863377749920e-04
1.917171990498900414e-03
9.023899910971522331e-04
1.567350351251661777e-03
-1.344072981737554073e-03
4.215773195028305054e-03
1.751439645886421204e-03
5.572933005169034004e-04
8.796540205366909504e-04
-2.871632459573447704e-04
5.472280317917466164e-04
-2.172220265492796898e-04
1.768148620612919331e-03
-1.738092396408319473e-03
-2.112734364345669746e-03
6.245821714401245117e-04
-1.193412346765398979e-03
-1.154438126832246780e-03
3.071725834161043167e-03
-2.755586523562669754e-03
2.526746364310383797e-03
6.732618785463273525e-04
9.477566927671432495e-04
-6.548140663653612137e-05
1.764670014381408691e-05
-9.366036392748355865e-04
-1.015341375023126602e-03
-1.890850951895117760e-03
-7.007312960922718048e-04
-2.198376227170228958e-03
-6.060304585844278336e-03
2.203309908509254456e-03
8.301470079459249973e-04
3.048905346076935530e-04
-7.225933950394392014e-04
-1.346936915069818497e-05
8.054589852690696716e-04
1.927391509525477886e-03
1.889091916382312775e-03
2.065684413537383080e-03
5.045633297413587570e-03
7.409702520817518234e-04
3.170772455632686615e-03
1.375633990392088890e-03
-3.076741006225347519e-03
-2.425462473183870316e-03
-9.723699185997247696e-04
-8.680274477228522301e-04
-1.980956643819808960e-03
4.814473795704543591e-04
1.268305815756320953e-03
-1.519123092293739319e-03
3.586231730878353119e-03
1.219499506987631321e-03
3.707483876496553421e-03
4.017231054604053497e-03
4.201493691653013229e-03
2.278385218232870102e-03
1.766927423886954784e-03
-2.016839571297168732e-03
8.764813537709414959e-04
3.403435461223125458e-03
1.712027355097234249e-03
-7.497589685954153538e-04
3.807272878475487232e-04
1.914812601171433926e-04
-9.147541131824254990e-04
2.665110165253281593e-03
6.015000981278717518e-04
4.606101429089903831e-04
-2.241719979792833328e-03
1.046805758960545063e-03
1.939726644195616245e-05
2.902671112678945065e-04
-3.230659756809473038e-03
-1.793295086827129126e-04
2.025073859840631485e-03
1.754339551553130150e-03
-1.984236529096961021e-03
3.541683545336127281e-04
1.937365741468966007e-03
5.011110333725810051e-04
1.197251374833285809e-03
1.305451383814215660e-03
1.698729349300265312e-03
3.171198768541216850e-03
3.129745833575725555e-03
4.493290558457374573e-03
4.438651259988546371e-03
3.339095972478389740e-03
-5.013337358832359314e-04
2.177464310079813004e-03
3.104177536442875862e-03
2.453625900670886040e-03
-8.851059828884899616e-05
-5.393202882260084152e-04
1.161667052656412125e-03
1.390194287523627281e-03
1.519072335213422775e-03
4.425981314852833748e-04
7.779561565257608891e-04
6.996754673309624195e-04
8.021232206374406815e-04
1.239868695847690105e-03
6.877526175230741501e-05
7.420092151733115315e-05
-3.703156835399568081e-05
-1.221993588842451572e-04
1.208833651617169380e-03
9.816741803660988808e-04
1.163675915449857712e-05
1.293639186769723892e-03
-6.079074810259044170e-04
-3.426427138037979603e-04
1.227955945068970323e-04
2.574434620328247547e-04
-9.804486762732267380e-04
6.949657108634710312e-05
-5.463892593979835510e-04
-1.228048931807279587e-03
8.479121606796979904e-05
-7.080815848894417286e-04
4.874708829447627068e-04
1.018082839436829090e-03
2.042559208348393440e-04
8.528848411515355110e-04
4.726892220787703991e-04
1.205624779686331749e-03
1.284810248762369156e-03
-2.009507443290203810e-05
-8.586072362959384918e-05
-1.078104600310325623e-03
-2.877314109355211258e-04
2.347573172301054001e-04
-9.049981599673628807e-04
4.326464841142296791e-04
-1.176600228063762188e-03
1.979296794161200523e-04
1.844798680394887924e-05
6.243943935260176659e-04
-1.222361694090068340e-03
-4.659574478864669800e-04
8.020991226658225060e-04
1.014051726087927818e-03
7.414947031065821648e-04
-8.739086333662271500e-04
-2.382863545790314674e-03
2.041175903286784887e-04
-1.673379098065197468e-03
-7.219615508802235126e-04
-2.655412536114454269e-03
-2.101010410115122795e-03
-1.745478948578238487e-03
-2.176122739911079407e-03
2.537329681217670441e-03
7.741217268630862236e-05
1.622784184291958809e-04
-7.618056843057274818e-04
1.481937011703848839e-03
1.751230214722454548e-03
2.136447699740529060e-03
3.051070496439933777e-03
2.987284911796450615e-03
3.309693653136491776e-03
1.946061849594116211e-03
2.808134304359555244e-04
1.444249413907527924e-03
1.397132873535156250e-03
6.306544528342783451e-04
1.204417785629630089e-04
1.776574412360787392e-03
8.640760206617414951e-04
2.635977580212056637e-04
1.052967272698879242e-03
3.253528848290443420e-04
6.470179068855941296e-04
2.365919295698404312e-03
-6.544596981257200241e-04
-9.123575873672962189e-04
-6.931669777259230614e-04
2.057383302599191666e-03
-4.993487382307648659e-04
-6.974689895287156105e-04
-3.861392149701714516e-03
2.692156704142689705e-04
1.071873703040182590e-04
1.616361900232732296e-03
-7.563417311757802963e-04
-9.894347749650478363e-04
3.652048995718359947e-03
7.109833532012999058e-04
3.201552201062440872e-03
-9.068975923582911491e-04
-3.934067790396511555e-04
3.913692198693752289e-03
2.529800403863191605e-03
1.828793901950120926e-03
-1.364859170280396938e-03
-3.294494235888123512e-04
-2.286548027768731117e-03
1.206627348437905312e-04
3.380107227712869644e-05
-5.553064402192831039e-04
-3.271359251812100410e-03
-4.573626443743705750e-03
-1.148535171523690224e-03
2.805769676342606544e-03
8.833183674141764641e-04
1.998786814510822296e-03
-2.744464203715324402e-03
-8.490013424307107925e-04
3.705326933413743973e-03
3.594901412725448608e-03
-2.764676231890916824e-03
2.171957399696111679e-03
2.524299081414937973e-03
7.443170179612934589e-04
1.995158381760120392e-03
-4.744995851069688797e-03
-1.087240874767303467e-03
-6.853256374597549438e-03
-6.543530616909265518e-03
-4.789418075233697891e-03
-6.007568910717964172e-03
-3.690866869874298573e-04
-6.100425962358713150e-04
2.378577482886612415e-04
-9.687303099781274796e-04
1.518939272500574589e-03
1.522222300991415977e-03
1.156682148575782776e-03
1.461379695683717728e-03
-1.438704552128911018e-03
2.512839622795581818e-03
2.951351925730705261e-04
3.469820134341716766e-03
-1.448378432542085648e-03
6.717544747516512871e-04
-2.329035196453332901e-03
2.611565869301557541e-04
-5.493728676810860634e-04
5.412993486970663071e-04
6.442801677621901035e-04
-3.412650548852980137e-04
-4.816130269318819046e-03
2.095839881803840399e-04
-9.132138220593333244e-04
-2.533056773245334625e-03
-4.222945717629045248e-04
1.333181746304035187e-03
-2.114806789904832840e-03
7.478857878595590591e-05
1.531573012471199036e-03
-6.562764756381511688e-04
-8.123653824441134930e-04
-2.170837251469492912e-04
1.741811400279402733e-03
1.740678446367383003e-03
1.513245864771306515e-03
8.677936275489628315e-04
1.895555760711431503e-04
-1.748803653754293919e-03
-3.894899855367839336e-04
1.403039321303367615e-03
-1.510526635684072971e-03
-9.183757938444614410e-04
-1.088415505364537239e-03
-5.002714169677346945e-05
2.051616786047816277e-03
1.464338274672627449e-04
-4.654289223253726959e-04
6.102394545450806618e-04
4.959377693012356758e-04
1.494743512012064457e-03
3.381566784810274839e-04
-9.622448123991489410e-04
1.065280870534479618e-03
-1.951362501131370664e-04
-1.027000369504094124e-03
-1.655842526815831661e-03
-4.102900857105851173e-04
-2.119834301993250847e-03
-1.847865059971809387e-03
6.754691712558269501e-04
-1.742142019793391228e-03
9.435885585844516754e-04
2.571472665295004845e-03
1.860793447121977806e-03
2.100518904626369476e-04
-5.765382084064185619e-04
-6.852247170172631741e-04
1.582470838911831379e-03
8.258390007540583611e-04
1.035839668475091457e-03
1.011840766295790672e-03
-1.814596587792038918e-03
1.792208524420857430e-03
1.118874177336692810e-03
-4.803260526387020946e-05
-3.173351520672440529e-03
-3.977132961153984070e-03
-3.212666604667901993e-03
-4.793172702193260193e-03
-2.143672667443752289e-03
-3.078316105529665947e-03
1.019961782731115818e-03
-4.973821341991424561e-04
-1.549726352095603943e-03
-2.425350947305560112e-03
-1.699135405942797661e-03
-2.437423681840300560e-03
6.295376224443316460e-04
-5.544739542528986931e-05
-3.483807668089866638e-04
-9.734318591654300690e-04
1.054261578246951103e-03
-1.304915174841880798e-03
9.248949354514479637e-04
1.522367238067090511e-04
-9.368084138259291649e-04
-2.219749614596366882e-03
2.145525533705949783e-03
1.221940852701663971e-03
-2.104457234963774681e-03
3.249401925131678581e-03
1.592616084963083267e-03
2.146750222891569138e-03
7.544127292931079865e-04
1.021749339997768402e-03
-3.671701531857252121e-03
9.038649732246994972e-04
-1.701934379525482655e-03
-1.649504061788320541e-03
-2.395886462181806564e-03
-9.853132069110870361e-04
-2.471738727763295174e-03
-1.699104672297835350e-03
-2.306400798261165619e-03
-4.724672064185142517e-03
-4.808556288480758667e-03
-5.338741466403007507e-03
6.786221056245267391e-04
-2.693207934498786926e-04
4.956180346198379993e-04
1.722966553643345833e-03
5.331439897418022156e-04
4.215538501739501953e-04
-1.852853107266128063e-03
1.333977095782756805e-03
-6.684195250272750854e-05
1.386037329211831093e-04
1.582394761499017477e-04
-1.956855878233909607e-03
-9.950922103598713875e-04
-1.361812464892864227e-03
-1.337384339421987534e-03
-4.185795260127633810e-04
3.530865069478750229e-04
-2.229294041171669960e-04
-2.765880781225860119e-04
3.140328044537454844e-04
-1.210769987665116787e-03
1.569555490277707577e-03
-5.983446026220917702e-04
5.939501570537686348e-04
6.452031084336340427e-04
6.360182305797934532e-04
6.458093412220478058e-04
1.624320168048143387e-03
-7.387370569631457329e-04
-1.607184065505862236e-03
-1.588506158441305161e-03
-2.570665907114744186e-03
-1.773604890331625938e-03
-3.152969758957624435e-03
-3.549660090357065201e-03
-2.278287429362535477e-03
1.706204144284129143e-03
-1.183119602501392365e-04
-2.526012016460299492e-03
8.172347443178296089e-04
1.599125564098358154e-03
1.140739070251584053e-03
1.060075592249631882e-04
4.293788224458694458e-04
-1.663687173277139664e-03
4.065682645887136459e-03
5.306411185301840305e-04
-2.668499015271663666e-03
-7.346580969169735909e-04
-2.030293922871351242e-03
-9.821426356211304665e-04
3.125149232801049948e-04
-5.280912737362086773e-04
-3.336419351398944855e-03
8.706303779035806656e-04
4.020031541585922241e-03
-1.621762057766318321e-03
-7.199915125966072083e-05
1.264342456124722958e-03
3.712469246238470078e-03
-3.502029576338827610e-04
-6.183602381497621536e-04
1.112919650040566921e-03
7.340186741203069687e-03
-1.238515949808061123e-03
3.599020885303616524e-03
-1.061834860593080521e-03
3.346780780702829361e-03
1.263957237824797630e-03
1.951359445229172707e-03
-8.032125188037753105e-04
5.329278064891695976e-05
1.059453119523823261e-03
3.193197306245565414e-03
1.647075521759688854e-03
-7.307085907086730003e-04
-2.168864710256457329e-03
-2.132817171514034271e-04
-1.441096188500523567e-03
-3.569204127416014671e-04
-5.795576609671115875e-03
-2.266058465465903282e-03
2.332662261324003339e-04
-7.072802400216460228e-04
-2.972321526613086462e-04
2.111727138981223106e-03
2.396581927314400673e-03
1.419091247953474522e-03
4.006538540124893188e-03
3.792144358158111572e-03
1.864583930000662804e-03
2.300439402461051941e-03
9.871274232864379883e-04
1.463240012526512146e-03
5.372952437028288841e-04
-1.004479010589420795e-03
-2.742540324106812477e-03
-2.257242565974593163e-03
-2.355808392167091370e-03
-1.291699940338730812e-03
6.131483241915702820e-04
9.498985018581151962e-04
7.485764799639582634e-04
2.197006950154900551e-03
3.360461210831999779e-03
3.666874021291732788e-03
3.426300128921866417e-03
1.141052343882620335e-03
4.005345515906810760e-03
2.369557274505496025e-03
3.218210302293300629e-03
-3.727277275174856186e-03
-2.185808029025793076e-03
-2.561416476964950562e-03
-4.174119676463305950e-04
-7.335114059969782829e-04
-2.373751718550920486e-03
-1.681725727394223213e-03
-5.138237029314041138e-04
1.511563605163246393e-04
3.491233568638563156e-03
5.233646370470523834e-04
2.403476275503635406e-03
8.914322825148701668e-05
5.203710403293371201e-03
4.197533708065748215e-03
2.041067928075790405e-03
2.972011861857026815e-04
3.586276434361934662e-04
5.135575309395790100e-03
3.243311773985624313e-03
4.901766777038574219e-03
2.220781287178397179e-03
4.774607077706605196e-05
-2.145730424672365189e-03
-2.653087954968214035e-03
-1.916056731715798378e-03
-4.166677594184875488e-03
-5.541343241930007935e-03
-2.687572501599788666e-03
6.097928271628916264e-04
9.219930507242679596e-04
-2.169705927371978760e-03
3.922679927200078964e-03
1.079774694517254829e-03
4.434121772646903992e-03
2.671591937541961670e-03
6.082565989345312119e-03
4.478636197745800018e-03
6.450020708143711090e-03
4.653747193515300751e-03
3.407694399356842041e-03
5.261512473225593567e-03
2.104220213368535042e-03
2.698399126529693604e-03
2.260036766529083252e-03
1.595226640347391367e-04
1.800891826860606670e-03
-1.024353085085749626e-03
-1.851878943853080273e-03
-3.136261133477091789e-03
-1.161939697340130806e-03
-1.963182818144559860e-03
-4.308924544602632523e-03
-5.766617599874734879e-03
-7.083388627506792545e-04
9.341489640064537525e-04
-3.490062081255018711e-04
2.848802367225289345e-03
3.346252720803022385e-03
5.538348574191331863e-03
2.241066191345453262e-03
4.365134052932262421e-03
2.973263035528361797e-04
3.493396099656820297e-03
5.393024533987045288e-03
2.799839479848742485e-03
2.407706342637538910e-03
1.021193224005401134e-03
1.079809037037193775e-03
-1.233179209521040320e-04
2.271498320624232292e-03
7.168152369558811188e-04
-2.054756507277488708e-03
-1.620042603462934494e-04
-3.438160347286611795e-04
1.113759237341582775e-03
-1.374124432913959026e-03
2.950384514406323433e-04
-1.824225764721632004e-04
4.144932609051465988e-03
1.280013471841812134e-03
1.784379710443317890e-03
5.481821717694401741e-04
9.066001512110233307e-04
2.159641589969396591e-03
6.664846441708505154e-04
1.529967295937240124e-03
1.984801376238465309e-03
1.643464318476617336e-03
1.407364732585847378e-03
3.000037395395338535e-04
2.228970639407634735e-03
2.348182897549122572e-05
-3.902764001395553350e-04
-8.258773013949394226e-04
6.979613099247217178e-04
1.278419513255357742e-03
1.122841727919876575e-03
-3.795184893533587456e-04
1.128903357312083244e-03
8.286515949293971062e-04
-2.007649978622794151e-03
9.546165820211172104e-04
-1.538106938824057579e-03
5.473904311656951904e-04
-2.014431636780500412e-03
-5.093906656838953495e-05
1.075948006473481655e-03
9.774776117410510778e-05
-2.168980427086353302e-05
7.275159587152302265e-04
-1.252949587069451809e-04
-1.899962313473224640e-03
-3.117064479738473892e-04
-1.265159575268626213e-03
-1.542998244985938072e-03
6.002487498335540295e-05
-2.883645938709378242e-03
-9.484332986176013947e-04
-2.229004399850964546e-03
-1.565429265610873699e-03
-4.318120889365673065e-03
-3.323228796944022179e-03
-3.521800506860017776e-03
-2.283453708514571190e-03
-1.175769953988492489e-03
-8.668215596117079258e-04
1.859980402514338493e-03
-7.369560771621763706e-04
7.650572806596755981e-04
1.212334027513861656e-03
1.585004967637360096e-03
4.632290801964700222e-05
6.279424997046589851e-04
-8.708986570127308369e-05
-1.322850817814469337e-03
-1.289845444262027740e-03
1.032073632813990116e-03
8.307903772220015526e-04
6.557898013852536678e-04
6.075230776332318783e-04
1.989862648770213127e-04
1.332902116701006889e-03
1.192125491797924042e-03
1.095034298487007618e-03
7.835932774469256401e-05
-5.580447032116353512e-04
5.951875355094671249e-04
-4.339835431892424822e-04
-1.383808557875454426e-04
-1.497362740337848663e-03
-1.302017481066286564e-03
-1.179558807052671909e-03
8.030217722989618778e-04
1.019684132188558578e-04
2.551854820922017097e-03
4.553750040940940380e-04
1.234195427969098091e-03
-1.719221472740173340e-06
1.105869305320084095e-03
-1.207168097607791424e-04
-2.449999796226620674e-03
5.070831393823027611e-04
4.667679895646870136e-04
7.847976521588861942e-04
6.044381298124790192e-04
4.814210115000605583e-04
6.742179393768310547e-04
2.707861596718430519e-03
2.756825881078839302e-03
1.729987212456762791e-03
1.415394362993538380e-03
2.349330112338066101e-03
3.488992806524038315e-03
2.230551559478044510e-03
2.740352647379040718e-05
8.984131272882223129e-05
4.483922675717622042e-04
3.995225415565073490e-05
1.054377644322812557e-04
-2.891757176257669926e-04
-2.292179968208074570e-03
-7.988431025296449661e-04
-1.646982273086905479e-03
-1.126974122598767281e-03
5.541511927731335163e-04
1.163619686849415302e-03
8.553559309802949429e-04
-3.236258635297417641e-05
-7.464768132194876671e-04
1.248799613676965237e-03
7.101670489646494389e-04
1.729696639813482761e-03
-4.079206264577805996e-04
-3.105616779066622257e-04
-1.025406294502317905e-03
-3.708767471835017204e-04
-1.628928817808628082e-03
-2.038832899415865541e-04
-3.737590974196791649e-03
-2.716123824939131737e-03
-1.639515627175569534e-03
-3.851424437016248703e-03
-9.958586888387799263e-04
-9.526676731184124947e-04
-1.126310788094997406e-03
-1.053064363077282906e-03
8.665572968311607838e-04
8.043280104175209999e-05
-7.732611848041415215e-04
2.638714795466512442e-04
5.847315769642591476e-04
1.203753752633929253e-03
1.803128747269511223e-03
-2.501728944480419159e-03
-1.772226416505873203e-03
-2.658760175108909607e-03
-1.935755135491490364e-03
-1.899775699712336063e-03
-9.365157457068562508e-04
-2.288143616169691086e-03
-2.426193095743656158e-03
-4.340811574365943670e-04
-2.192851388826966286e-03
-2.444385085254907608e-03
8.770453860051929951e-05
9.019883582368493080e-04
-1.000567455776035786e-03
-1.734963036142289639e-03
-5.520618287846446037e-04
1.017020549625158310e-04
6.137504824437201023e-04
-7.478583138436079025e-04
-2.636565477587282658e-04
-3.699330147355794907e-03
-4.396141041070222855e-03
-3.391468897461891174e-03
-1.275131478905677795e-03
4.670581547543406487e-04
-1.818575663492083549e-03
-1.672494690865278244e-03
-1.833577640354633331e-03
2.234464511275291443e-03
-3.610321437008678913e-04
3.546492662280797958e-03
1.508306362666189671e-03
3.000316210091114044e-03
3.859241493046283722e-03
5.765968468040227890e-03
5.006567575037479401e-03
1.896445872262120247e-03
3.684049472212791443e-03
2.422842895612120628e-03
3.177858656272292137e-03
1.069049350917339325e-03
1.047188998199999332e-03
-4.170517786405980587e-04
-1.990939199458807707e-04
-9.094174019992351532e-04
1.577648101374506950e-03
-4.508582642301917076e-04
-2.119983546435832977e-03
-2.833098405972123146e-04
-7.606926374137401581e-04
6.914581172168254852e-05
2.217855071648955345e-03
1.114821294322609901e-03
8.569059427827596664e-04
5.418983055278658867e-04
5.754893063567578793e-04
1.404825015924870968e-03
2.205675467848777771e-03
1.077510765753686428e-03
8.065109141170978546e-04
6.148997927084565163e-04
-7.358539151027798653e-04
2.128756372258067131e-03
-1.268386840820312500e-04
1.554199145175516605e-03
-2.379407640546560287e-03
-2.184167096856981516e-04
-3.179231658577919006e-03
-2.397401258349418640e-03
-4.056131001561880112e-03
-3.258639248088002205e-03
-4.393096547573804855e-03
-1.967746531590819359e-03
-2.361710648983716965e-04
5.260483012534677982e-04
-5.626091733574867249e-04
-1.159618841484189034e-03
1.280543045140802860e-03
-8.014317718334496021e-04
1.681638997979462147e-03
-2.615160308778285980e-03
2.237579028587788343e-04
5.843393155373632908e-04
2.840173430740833282e-03
-1.117127016186714172e-03
-1.152912969700992107e-03
-1.459475373849272728e-03
2.245212672278285027e-04
-2.978703239932656288e-03
3.027875209227204323e-03
-1.103664166294038296e-03
-8.465731516480445862e-04
-2.462999837007373571e-04
5.179956788197159767e-04
-9.771204786375164986e-04
7.959582726471126080e-04
-1.547422027215361595e-03
2.826609183102846146e-03
5.151231307536363602e-03
2.356936456635594368e-04
3.940879367291927338e-03
2.115127630531787872e-03
3.397793043404817581e-03
1.537023577839136124e-03
-3.972087288275361061e-04
-2.044900786131620407e-03
6.499564042314887047e-04
2.417381387203931808e-03
-2.560999477282166481e-03
-3.061128372792154551e-04
-2.659934805706143379e-03
-8.387640700675547123e-04
-2.942356746643781662e-03
2.469504252076148987e-03
3.495111828669905663e-03
4.355737473815679550e-03
2.682344755157828331e-03
4.271540790796279907e-03
5.764224566519260406e-03
1.488560228608548641e-03
1.499137491919100285e-03
2.452704124152660370e-03
1.418067840859293938e-03
-3.337911097332835197e-03
3.158812411129474640e-03
-2.008998068049550056e-03
-1.748883223626762629e-04
-3.305508289486169815e-05
-2.554518869146704674e-04
-4.887853749096393585e-03
2.189365681260824203e-03
-1.854809233918786049e-04
-1.585942925885319710e-03
-1.652759849093854427e-03
-2.918509766459465027e-03
-1.733614597469568253e-03
-1.341147813946008682e-03
6.931400857865810394e-04
5.000862292945384979e-04
2.928388305008411407e-03
2.072286559268832207e-03
8.596186526119709015e-04
-4.777741560246795416e-05
-3.160767082590609789e-04
-1.096263149520382285e-04
-2.775783650577068329e-03
4.559623776003718376e-04
8.196612470783293247e-04
1.069020363502204418e-04
-1.137722516432404518e-03
-1.563947182148694992e-03
-2.638512291014194489e-03
-9.139432222582399845e-05
-2.007703529670834541e-03
-2.616019046399742365e-04
-1.594911096617579460e-03
1.397852611262351274e-04
-1.467246562242507935e-03
-4.363206680864095688e-04
-2.403196413069963455e-04
-4.503534000832587481e-04
-1.900003757327795029e-03
2.296150341862812638e-04
-4.218613030388951302e-04
4.543103277683258057e-04
5.433478509075939655e-04
1.242766855284571648e-03
1.307528698816895485e-03
1.873798086307942867e-03
1.842395053245127201e-03
-1.031019026413559914e-03
5.948357284069061279e-06
-1.904430566355586052e-03
-6.841431604698300362e-04
-3.880811855196952820e-04
7.126349955797195435e-04
8.165161125361919403e-05
-1.261264551430940628e-04
2.159904688596725464e-03
-9.135648142546415329e-04
-1.084265386452898383e-04
-1.146240625530481339e-03
-6.435538525693118572e-04
-1.337252440862357616e-03
2.886285539716482162e-03
2.010364085435867310e-03
1.701157772913575172e-03
1.276663271710276604e-03
2.410606248304247856e-04
-2.019810955971479416e-03
-5.205342313274741173e-04
2.820834517478942871e-03
3.340041730552911758e-03
2.109628636389970779e-03
3.494161181151866913e-03
8.263468043878674507e-04
6.953989504836499691e-04
2.854223363101482391e-03
2.475322922691702843e-03
1.095146988518536091e-03
3.396651591174304485e-04
1.483795233070850372e-03
-1.408908748999238014e-03
-3.724900539964437485e-03
-2.270520664751529694e-03
-1.565238577313721180e-03
-2.702705096453428268e-03
-2.144346013665199280e-03
1.260934863239526749e-03
-2.287270501255989075e-03
6.511382525786757469e-04
-1.179232145659625530e-03
7.798812002874910831e-04
9.943877812474966049e-04
-7.004494545981287956e-04
-3.739451058208942413e-04
2.198062138631939888e-03
2.768910257145762444e-03
2.137664705514907837e-03
8.352249860763549805e-04
1.084624440409243107e-03
2.377379219979047775e-03
1.319737988524138927e-03
1.062856987118721008e-03
6.426388863474130630e-04
1.399960368871688843e-03
-3.014600370079278946e-04
6.559267058037221432e-04
3.206045948900282383e-04
9.086219361051917076e-04
4.651530762203037739e-04
1.564614649396389723e-04
3.310070023871958256e-04
-1.526420237496495247e-04
-9.918007708620280027e-05
-1.326350495219230652e-03
-4.543548857327550650e-05
-2.377716125920414925e-03
-3.245277039241045713e-04
-2.509285230189561844e-03
-1.393930171616375446e-03
-3.651929786428809166e-03
-2.241220325231552124e-03
-2.718918956816196442e-03
-6.236372282728552818e-04
-1.799019053578376770e-03
-7.637685048393905163e-04
-3.088214434683322906e-04
6.660686922259628773e-04
2.436493057757616043e-03
9.205469978041946888e-04
2.440669341012835503e-03
1.118277315981686115e-03
3.882845165207982063e-03
1.355612883344292641e-03
1.207974506542086601e-03
1.898218179121613503e-03
2.422437071800231934e-03
2.579198917374014854e-03
1.297043287195265293e-03
2.069881651550531387e-03
1.846130238845944405e-03
1.526381471194326878e-03
-4.197387606836855412e-04
2.968624001368880272e-03
1.678951550275087357e-03
2.025302033871412277e-03
1.516379998065531254e-03
3.127067349851131439e-03
-1.552409376017749310e-03
-7.163077243603765965e-04
-9.895894909277558327e-04
-2.742905053310096264e-06
-2.132636960595846176e-03
7.110285514499992132e-05
-9.077308932319283485e-04
-9.713377803564071655e-04
3.680835070554167032e-04
-3.106966323684900999e-04
-1.083897426724433899e-03
-2.583926077932119370e-03
1.609197934158146381e-04
1.933990279212594032e-04
3.211443079635500908e-03
1.658886321820318699e-03
1.100109191611409187e-03
1.284325262531638145e-03
2.485008910298347473e-03
1.324144657701253891e-03
7.302084122784435749e-04
3.692046739161014557e-04
-1.673827646300196648e-04
1.543144928291440010e-03
2.508298726752400398e-03
2.874577185139060020e-04
2.628086367622017860e-04
-2.648072317242622375e-03
-2.489429432898759842e-03
-6.621486390940845013e-04
2.512657782062888145e-03
1.035387162119150162e-03
-1.574218040332198143e-03
-1.269838772714138031e-03
4.699811688624322414e-04
3.374368243385106325e-04
3.576257731765508652e-03
2.003601752221584320e-03
8.273019338957965374e-04
2.407572697848081589e-03
2.264121081680059433e-03
2.391559537500143051e-03
3.823021659627556801e-03
3.661758033558726311e-03
-3.072120482102036476e-03
-9.293961338698863983e-04
9.904033504426479340e-04
1.521534752100706100e-03
1.322329160757362843e-03
2.086881082504987717e-03
1.211764174513518810e-04
1.555838389322161674e-05
1.018998445942997932e-03
1.072307466529309750e-03
-3.841406432911753654e-03
1.764311688020825386e-03
-8.135971147567033768e-04
3.584566758945584297e-03
1.719936844892799854e-03
1.890247920528054237e-03
-1.872339053079485893e-03
-5.293914582580327988e-04
2.229409525170922279e-03
-8.826279663480818272e-04
-6.029053474776446819e-04
-2.391750924289226532e-03
1.540682860650122166e-03
-2.333091106265783310e-05
9.224741952493786812e-04
-2.893291879445314407e-03
-8.890999015420675278e-04
-8.739726617932319641e-04
-2.185584977269172668e-03
-3.091618418693542480e-03
-5.038408562541007996e-05
8.333218283951282501e-04
1.694134552963078022e-03
2.485244069248437881e-03
-5.544364103116095066e-05
7.382364710792899132e-04
-1.153455814346671104e-03
1.386818941682577133e-03
1.097362837754189968e-03
2.530680270865559578e-03
-6.856188410893082619e-04
1.263714861124753952e-03
1.254572300240397453e-03
1.423234352841973305e-04
2.044474240392446518e-03
1.355614513158798218e-03
8.830383885651826859e-04
-5.559285054914653301e-04
2.605883870273828506e-03
-1.107345684431493282e-03
2.264258451759815216e-03
4.581912362482398748e-04
1.453413045965135098e-03
-2.297235885635018349e-03
1.351240789517760277e-03
2.512659411877393723e-03
1.056718872860074043e-03
9.407355682924389839e-04
-1.474738237448036671e-04
5.515354860108345747e-05
-6.064987974241375923e-04
-9.557125158607959747e-04
-2.349902410060167313e-03
5.662581534124910831e-04
1.822295715101063251e-03
-1.165448455139994621e-03
1.355019630864262581e-04
-2.371503505855798721e-04
1.324511598795652390e-03
3.590556443668901920e-04
2.135176677256822586e-03
-9.632890578359365463e-05
-2.961897989735007286e-04
1.896894391393288970e-04
1.207139459438621998e-03
1.488389447331428528e-03
-3.680380759760737419e-04
2.119214273989200592e-03
4.792698309756815434e-04
2.558817388489842415e-03
-1.481816871091723442e-04
2.486955141648650169e-03
9.878915734589099884e-04
8.839201182126998901e-04
6.840791320428252220e-05
-1.359234796836972237e-03
7.034121663309633732e-04
3.305339720100164413e-03
3.210869384929537773e-03
1.528294174931943417e-03
2.246953314170241356e-03
1.675017643719911575e-03
6.234855391085147858e-04
3.661727299913764000e-03
7.958573987707495689e-04
-9.114028216572478414e-05
-4.015605081804096699e-04
4.276033141650259495e-04
-2.128265798091888428e-03
-1.645039301365613937e-04
-2.670049434527754784e-04
-8.471032488159835339e-04
-1.083241309970617294e-03
-1.838312367908656597e-03
-1.811995869502425194e-03
-1.560846692882478237e-03
-4.372686089482158422e-04
3.743641718756407499e-04
-1.106624142266809940e-03
-1.749133225530385971e-04
4.991874448023736477e-04
7.142165559343993664e-04
9.147047530859708786e-04
3.069921862334012985e-03
1.032377826049923897e-03
1.325852470472455025e-03
1.669463235884904861e-03
1.078879111446440220e-03
1.471082912757992744e-03
1.863001845777034760e-03
1.470864051952958107e-03
4.864991933573037386e-04
-1.978576183319091797e-04
-3.779457765631377697e-04
4.951793234795331955e-04
-1.740634179441258311e-04
5.722338682971894741e-04
-4.284965107217431068e-04
5.716039449907839298e-04
1.745833898894488811e-03
9.199805790558457375e-04
-4.791458195541054010e-04
2.010073047131299973e-03
6.037824787199497223e-04
1.896774279884994030e-03
1.573780551552772522e-03
3.176816739141941071e-03
3.148678224533796310e-03
2.642599865794181824e-03
3.338468261063098907e-03
2.266786759719252586e-03
2.833450213074684143e-03
4.324786365032196045e-03
4.565755836665630341e-03
2.196682384237647057e-03
-2.687295200303196907e-03
6.838671979494392872e-04
6.133480928838253021e-04
3.401745052542537451e-04
-8.197416900657117367e-04
-1.694053877145051956e-03
1.956305000931024551e-03
-1.267401035875082016e-03
-1.435918733477592468e-03
-6.153210415504872799e-04
1.354184933006763458e-03
-2.438663039356470108e-03
-1.728982431814074516e-03
-2.277690684422850609e-03
-4.640574567019939423e-03
-1.885071396827697754e-03
-3.611079417169094086e-03
-2.907194662839174271e-03
-4.336166195571422577e-03
-6.052090786397457123e-03
-3.732898505404591560e-03
-4.440006799995899200e-03
-2.936943783424794674e-04
