-5.152426194399595261e-03
-1.094330195337533951e-02
6.314487196505069733e-03
-2.742346841841936111e-03
2.900353400036692619e-03
-5.417371634393930435e-03
5.221229512244462967e-04
2.865086076781153679e-03
1.204090751707553864e-02
6.015505641698837280e-03
-2.450552536174654961e-03
-1.445277244783937931e-03
-2.697996096685528755e-03
-2.921072300523519516e-03
-5.514638032764196396e-03
-3.875367110595107079e-05
1.738549675792455673e-03
-9.581342455931007862e-04
3.824005369096994400e-03
8.857567445375025272e-04
3.784128930419683456e-03
1.480164704844355583e-03
6.149236112833023071e-03
4.119974095374345779e-03
6.100375670939683914e-03
5.661926697939634323e-03
2.777822082862257957e-03
5.110168363898992538e-03
7.330095395445823669e-03
6.566038820892572403e-03
7.315911818295717239e-03
5.510666873306035995e-03
6.244210992008447647e-03
1.223987783305346966e-03
4.155509173870086670e-03
4.185872152447700500e-03
4.930593073368072510e-03
-1.901397015899419785e-03
5.043433047831058502e-04
2.646783832460641861e-03
2.601562300696969032e-03
-2.721627010032534599e-03
1.889506471343338490e-03
8.840163936838507652e-04
1.067835954017937183e-03
1.902178511954843998e-03
1.446981565095484257e-03
-1.456348458305001259e-03
5.995100946165621281e-04
-3.160962369292974472e-03
-1.719010062515735626e-03
1.451116986572742462e-06
-2.670864341780543327e-05
-1.844190061092376709e-03
-6.989823887124657631e-04
-1.300474628806114197e-03
-8.792137377895414829e-04
-2.169124782085418701e-03
9.633671143092215061e-04
-3.924202639609575272e-03
8.667614310979843140e-04
-3.215785545762628317e-04
4.519341746345162392e-04
-1.186108565889298916e-04
5.553090886678546667e-05
3.025166690349578857e-03
-6.426846084650605917e-05
6.606669630855321884e-04
5.550684873014688492e-04
4.647681023925542831e-03
3.660294460132718086e-03
4.503407049924135208e-03
3.711797064170241356e-03
5.525002721697092056e-03
4.499845206737518311e-03
3.587181214243173599e-03
4.518848843872547150e-03
2.485482022166252136e-03
3.552397713065147400e-03
1.845008227974176407e-03
-7.707452168688178062e-04
4.663670435547828674e-03
4.227634053677320480e-04
7.950058788992464542e-04
6.961940089240670204e-04
1.025588600896298885e-03
-9.657025802880525589e-04
-7.295822724699974060e-04
-1.125953625887632370e-03
-6.269966252148151398e-04
3.048219252377748489e-03
2.062000799924135208e-03
3.168277209624648094e-03
2.318373648449778557e-03
-2.120480174198746681e-03
2.034913515672087669e-03
-9.362163254991173744e-04
1.440924970665946603e-04
-3.612184897065162659e-03
-1.866700185928493738e-04
8.710583788342773914e-04
4.767065984196960926e-04
-1.005239202640950680e-03
-1.065730233676731586e-03
-3.124078270047903061e-03
-2.513810526579618454e-03
-2.364110201597213745e-03
-1.507799373939633369e-03
-7.253692019730806351e-04
-1.618832815438508987e-03
-2.906688489019870758e-03
-1.446917885914444923e-03
-3.955752123147249222e-03
-6.036959122866392136e-03
-6.032136734575033188e-03
-5.328297149389982224e-03
-3.109930781647562981e-03
-5.740199238061904907e-03
-7.895799353718757629e-03
-3.256631549447774887e-03
-4.686273634433746338e-03
-3.701598383486270905e-03
-5.443358793854713440e-03
-5.655789282172918320e-03
-6.613530218601226807e-03
-5.304980091750621796e-03
-4.884776193648576736e-03
-6.802703253924846649e-03
-8.828884921967983246e-03
-7.901494391262531281e-03
-1.027259603142738342e-02
-7.047662045806646347e-03
-8.837839588522911072e-03
-8.449260145425796509e-03
-8.777288720011711121e-03
-1.108140032738447189e-02
-1.202088966965675354e-02
-7.988965138792991638e-03
-9.714026935398578644e-03
-1.232206635177135468e-02
-1.065777614712715149e-02
-1.222000084817409515e-02
-1.121840532869100571e-02
-9.562378749251365662e-03
-1.171806547790765762e-02
-1.225972734391689301e-02
-1.366535481065511703e-02
-1.158008631318807602e-02
-1.623682305216789246e-02
-1.178359240293502808e-02
-1.490567903965711594e-02
-8.166588842868804932e-03
-1.029184833168983459e-02
-8.667999878525733948e-03
-1.322374120354652405e-02
-1.118724700063467026e-02
-1.276370510458946228e-02
-1.529156975448131561e-02
-1.061925478279590607e-02
-1.269468478858470917e-02
-2.573354169726371765e-02
-1.452071219682693481e-02
-2.630354836583137512e-02
-4.578565433621406555e-02
-2.132198400795459747e-02
-1.048114243894815445e-02
-4.064157232642173767e-02
-4.094771668314933777e-02
2.067033015191555023e-02
1.360418391413986683e-03
-4.395780712366104126e-02
8.810971863567829132e-03
6.121465936303138733e-03
-2.386876568198204041e-02
3.607383742928504944e-02
7.800449430942535400e-02
1.073154434561729431e-02
3.154563531279563904e-02
7.228519022464752197e-02
5.526640266180038452e-02
3.212569281458854675e-02
6.627367436885833740e-02
4.023435339331626892e-02
6.055494770407676697e-03
4.201993346214294434e-02
1.529639028012752533e-02
-6.839397363364696503e-03
-3.809901699423789978e-02
-4.506812989711761475e-02
-3.534491360187530518e-02
-9.044686704874038696e-02
-9.349767863750457764e-02
-7.660185545682907104e-02
-1.170806735754013062e-01
-1.356070786714553833e-01
-9.088160097599029541e-02
-9.752849489450454712e-02
-1.463972628116607666e-01
-5.901537835597991943e-02
2.322685439139604568e-03
-2.359125763177871704e-02
5.161567404866218567e-02
8.759698271751403809e-02
1.601157039403915405e-01
1.525276303291320801e-01
2.493414431810379028e-01
2.297309488058090210e-01
2.024162262678146362e-01
2.065059095621109009e-01
1.662252396345138550e-01
1.008060872554779053e-01
-1.099247485399246216e-02
-1.058012470602989197e-01
-1.500156372785568237e-01
-1.889445185661315918e-01
-2.841241657733917236e-01
-2.610854506492614746e-01
-2.706016004085540771e-01
-2.428874969482421875e-01
-1.770045608282089233e-01
-4.555289074778556824e-02
-1.585755795240402222e-01
-2.426090277731418610e-02
1.601868122816085815e-01
1.825419664382934570e-01
2.310137599706649780e-01
2.369690686464309692e-01
3.493028283119201660e-01
2.819552719593048096e-01
3.301036059856414795e-01
2.489892691373825073e-01
2.111687511205673218e-01
1.212339401245117188e-01
1.018590182065963745e-01
-5.683950707316398621e-02
-1.753929406404495239e-01
-1.762356758117675781e-01
-1.164021417498588562e-01
-4.480404406785964966e-02
-4.329043254256248474e-02
-3.866921737790107727e-02
2.275396604090929031e-03
-9.489434771239757538e-03
2.244813134893774986e-03
3.103344514966011047e-02
-3.419275861233472824e-03
5.662428447976708412e-04
2.450484782457351685e-02
2.826902084052562714e-02
1.403333991765975952e-02
2.679033391177654266e-02
4.682750441133975983e-03
1.231170911341905594e-02
9.696756489574909210e-03
1.539646554738283157e-02
3.075551707297563553e-03
1.362585835158824921e-02
1.793651655316352844e-02
2.070349454879760742e-02
8.452078327536582947e-03
1.240313611924648285e-02
1.702695712447166443e-02
1.229086611419916153e-02
2.413547132164239883e-03
2.714738016948103905e-03
5.995583720505237579e-03
2.167240018025040627e-03
-3.019412746652960777e-03
-3.650669241324067116e-03
-4.010150209069252014e-03
-1.010337937623262405e-02
-3.686805488541722298e-03
6.043766159564256668e-03
-1.835406757891178131e-02
-2.101097721606492996e-03
-5.693126469850540161e-03
-8.539178408682346344e-03
-4.824209958314895630e-03
1.200180407613515854e-02
2.774296328425407410e-03
-8.129151538014411926e-03
2.224207669496536255e-02
1.655054837465286255e-02
1.090090721845626831e-02
8.736946620047092438e-03
3.537634015083312988e-02
2.016364969313144684e-02
2.155416831374168396e-02
2.166206762194633484e-02
1.828876510262489319e-02
1.444364339113235474e-02
6.405152846127748489e-03
3.937138244509696960e-03
6.120393518358469009e-03
5.907441489398479462e-03
6.359371822327375412e-03
5.482988199219107628e-04
6.072333781048655510e-04
-3.266747342422604561e-03
-4.336376208811998367e-03
-7.572915405035018921e-03
2.104092855006456375e-04
8.271902799606323242e-03
1.158833503723144531e-02
2.707439474761486053e-03
1.471246033906936646e-02
1.437783800065517426e-02
1.609117165207862854e-02
1.601737365126609802e-02
1.662512868642807007e-02
1.514266058802604675e-02
1.054378878325223923e-02
2.848378615453839302e-03
4.202379379421472549e-03
8.462022989988327026e-03
2.484615659341216087e-03
4.966674838215112686e-03
4.332380369305610657e-03
2.668418223038315773e-03
4.318971186876296997e-03
6.601951085031032562e-03
4.756174981594085693e-03
6.406415253877639771e-03
2.170005580410361290e-03
6.162402220070362091e-03
5.815157201141119003e-04
5.266555584967136383e-03
4.160563927143812180e-03
5.673831794410943985e-03
1.843997626565396786e-03
2.685133367776870728e-03
3.163090441375970840e-03
5.519830156117677689e-03
4.316404927521944046e-03
2.522418042644858360e-03
-9.373365901410579681e-04
5.882848985493183136e-03
1.961778616532683372e-03
5.424232222139835358e-04
4.405423998832702637e-03
3.406675066798925400e-03
2.541031921282410622e-03
1.427818206138908863e-04
1.093115424737334251e-03
-2.574787009507417679e-03
3.111111698672175407e-03
1.890781335532665253e-03
-5.676021100953221321e-04
4.073490272276103497e-04
3.771999618038535118e-03
2.973568334709852934e-04
2.033143769949674606e-03
2.875073347240686417e-03
3.435166087001562119e-03
-2.646027831360697746e-03
-1.221338752657175064e-04
2.386703854426741600e-04
-6.598309846594929695e-04
-4.740836098790168762e-03
-2.411100547760725021e-03
-1.971384626813232899e-04
9.342812700197100639e-04
-2.062042709439992905e-03
-2.642857609316706657e-03
-1.823147176764905453e-03
-1.870462903752923012e-03
-2.114278730005025864e-03
-3.745538182556629181e-03
-2.884986111894249916e-03
-5.948792677372694016e-03
-2.825254108756780624e-03
-3.766012378036975861e-03
-8.019697852432727814e-04
-7.360341027379035950e-03
-7.134750485420227051e-03
-4.406301770359277725e-03
-3.360927803441882133e-03
-4.544776864349842072e-03
-7.837816141545772552e-03
-6.949535571038722992e-03
-8.331872522830963135e-03
-5.965651944279670715e-03
-8.129531517624855042e-03
-6.176376715302467346e-03
-6.767252460122108459e-03
-9.439919143915176392e-03
-8.893080987036228180e-03
-6.465324666351079941e-03
-6.431514862924814224e-03
-7.895546033978462219e-03
-6.379550322890281677e-03
-1.248305477201938629e-02
-1.015673484653234482e-02
-8.708160370588302612e-03
-8.278245106339454651e-03
-1.108501944690942764e-02
-1.073803380131721497e-02
-1.006168406456708908e-02
-8.571537211537361145e-03
-9.633710607886314392e-03
-1.231572031974792480e-02
-1.071744039654731750e-02
-7.774428930133581161e-03
-7.959232665598392487e-03
-1.144872419536113739e-02
-6.406809203326702118e-03
-5.575917195528745651e-03
-4.168624989688396454e-03
-7.046036887913942337e-03
-2.393995644524693489e-03
-2.979852957651019096e-03
-4.535999149084091187e-03
-5.066006444394588470e-03
-3.446125891059637070e-03
-9.024765342473983765e-03
-3.749964293092489243e-03
-5.115918349474668503e-03
-1.254936796613037586e-03
-1.889939652755856514e-03
7.630920736119151115e-04
-4.175937734544277191e-03
-4.952759016305208206e-03
1.822641235776245594e-03
-7.041680626571178436e-03
-3.019861411303281784e-03
-9.090877720154821873e-04
-1.198803540319204330e-02
-2.278457395732402802e-02
-6.919244769960641861e-03
-4.471376538276672363e-03
-1.386883482336997986e-02
-1.281149312853813171e-02
-7.107123732566833496e-03
3.890021704137325287e-03
5.382219795137643814e-03
1.754155941307544708e-02
1.551858987659215927e-02
5.730722099542617798e-03
2.726320736110210419e-02
2.584814839065074921e-02
1.696611940860748291e-02
1.075171306729316711e-02
-2.773482166230678558e-02
-6.858178973197937012e-02
-5.214558914303779602e-02
-7.563222199678421021e-02
-1.377450972795486450e-01
-1.235866695642471313e-01
-1.213671341538429260e-01
-1.824271976947784424e-01
-1.304791718721389771e-01
-1.234072446823120117e-01
-9.105338901281356812e-02
-1.264300942420959473e-01
3.568146377801895142e-02
7.569257169961929321e-02
1.162050515413284302e-01
2.280446290969848633e-01
2.016279995441436768e-01
2.865974903106689453e-01
2.183383703231811523e-01
2.788991332054138184e-01
1.408418267965316772e-01
1.492840945720672607e-01
3.577291965484619141e-02
-2.581409551203250885e-02
-1.146748661994934082e-01
-1.232758313417434692e-01
-1.180288866162300110e-01
-8.714375644922256470e-02
-6.367649137973785400e-02
-2.713949419558048248e-03
-8.569093421101570129e-03
1.506228651851415634e-02
5.958503577858209610e-03
9.078494273126125336e-03
1.385919004678726196e-02
8.273803628981113434e-03
2.538083586841821671e-03
5.366552155464887619e-03
-1.106467796489596367e-03
2.287162933498620987e-04
1.579999458044767380e-03
3.070973791182041168e-03
5.523384315893054008e-04
-1.761497347615659237e-03
-4.049007315188646317e-03
-9.686439298093318939e-04
-2.249567303806543350e-03
-7.629764731973409653e-03
-4.904341418296098709e-03
-6.040909793227910995e-03
-5.885429680347442627e-03
-6.880267523229122162e-03
-7.758500054478645325e-03
-7.048762403428554535e-03
-1.022842805832624435e-02
-1.210424210876226425e-02
-1.114579383283853531e-02
-1.145581342279911041e-02
-1.315542403608560562e-02
-1.055167242884635925e-02
-8.191752247512340546e-03
-7.227505557239055634e-03
-8.418841287493705750e-03
-7.489841897040605545e-03
-8.572617545723915100e-03
-7.193467114120721817e-03
-4.303256981074810028e-03
-9.385120123624801636e-03
-6.602593231946229935e-03
-8.488941937685012817e-03
-4.869437776505947113e-03
-4.603702109307050705e-03
-1.241984544321894646e-03
-5.179200787097215652e-03
-6.000289693474769592e-03
2.811555052176117897e-03
1.208002865314483643e-02
6.886000744998455048e-03
9.435515850782394409e-03
1.118978019803762436e-03
1.418977882713079453e-02
1.478119380772113800e-02
9.740488603711128235e-03
1.615616492927074432e-02
9.060750715434551239e-03
6.953461561352014542e-03
1.382698304951190948e-02
-6.524724885821342468e-03
-1.311854645609855652e-02
-1.031067874282598495e-02
-2.618175931274890900e-04
2.429178450256586075e-03
-4.046383779495954514e-03
-1.027807965874671936e-02
-1.793844997882843018e-02
-3.176663815975189209e-02
-2.299922145903110504e-02
-1.365858362987637520e-03
-8.943230845034122467e-03
-4.250008985400199890e-02
1.598656293936073780e-03
2.444419823586940765e-02
-2.903685346245765686e-02
7.585061248391866684e-03
6.940391846001148224e-03
-1.132560544647276402e-03
3.168574301525950432e-03
8.261734992265701294e-02
3.178245201706886292e-02
-1.892592944204807281e-02
3.292991220951080322e-02
-1.149107515811920166e-02
-7.073851674795150757e-02
-1.183347553014755249e-01
-1.496416777372360229e-01
-1.388051807880401611e-01
-2.064869701862335205e-01
-2.134104669094085693e-01
-2.471859157085418701e-01
-1.930072456598281860e-01
-1.655219197273254395e-01
-1.125385910272598267e-01
-1.076604127883911133e-01
-6.273578107357025146e-02
5.150742456316947937e-02
2.003109753131866455e-01
8.391063660383224487e-02
3.119943737983703613e-01
2.167435437440872192e-01
4.396975040435791016e-01
3.944140672683715820e-01
4.754866361618041992e-01
2.443291395902633667e-01
3.887197673320770264e-01
1.924307793378829956e-01
1.597666144371032715e-01
-1.109207719564437866e-01
-2.232357412576675415e-01
-3.415679335594177246e-01
-2.539419531822204590e-01
-2.021095454692840576e-01
-7.698835432529449463e-02
-1.223176643252372742e-01
1.987513899803161621e-02
1.946450583636760712e-02
3.963630273938179016e-02
6.733035296201705933e-02
6.814448535442352295e-02
9.510898590087890625e-02
1.260930001735687256e-01
1.154578030109405518e-01
7.396219670772552490e-02
4.732235521078109741e-02
3.049277886748313904e-02
2.730735763907432556e-02
1.407583337277173996e-02
-4.413586866576224566e-04
-5.344933364540338516e-03
-9.663944132626056671e-03
-1.497066020965576172e-02
-8.604738861322402954e-03
-4.362867039162665606e-04
5.984847899526357651e-03
1.571952737867832184e-02
1.470141299068927765e-02
1.074405852705240250e-02
7.515562698245048523e-03
1.928238384425640106e-02
4.416069947183132172e-03
9.491809643805027008e-03
6.923454813659191132e-03
1.606244780123233795e-02
1.142938248813152313e-02
6.670305505394935608e-03
1.236310601234436035e-02
4.234258085489273071e-03
8.796612732112407684e-03
6.766268517822027206e-03
-1.562505960464477539e-03
-3.897929098457098007e-03
-4.318509716540575027e-03
5.901053547859191895e-03
1.620154478587210178e-03
-7.297094911336898804e-03
4.978794604539871216e-03
-3.757860278710722923e-03
-1.368746627122163773e-02
4.099960904568433762e-03
-5.983547773212194443e-03
-1.468646526336669922e-02
-1.612982898950576782e-02
3.446426615118980408e-02
-3.608803497627377510e-03
-1.287160348147153854e-02
1.577862724661827087e-02
1.823953539133071899e-02
-3.936462849378585815e-02
1.454812567681074142e-02
2.202414534986019135e-02
5.415588151663541794e-03
1.385070942342281342e-02
4.583646729588508606e-02
6.700940895825624466e-03
-2.791174314916133881e-02
5.320980027318000793e-02
3.972823172807693481e-02
2.260098233819007874e-02
4.147644713521003723e-02
6.469608843326568604e-02
2.031195908784866333e-02
4.476807639002799988e-02
6.328154820948839188e-03
1.007635053247213364e-02
-1.035238266922533512e-03
1.893505826592445374e-02
7.547183893620967865e-03
9.217990445904433727e-04
8.366216905415058136e-03
7.037494331598281860e-03
3.448744537308812141e-04
7.172069977968931198e-03
1.200112048536539078e-02
1.105106808245182037e-02
5.041275173425674438e-03
1.020396314561367035e-02
9.731616824865341187e-03
9.373038075864315033e-03
5.579730030149221420e-03
9.875433519482612610e-03
7.185827475041151047e-03
4.599810112267732620e-03
8.380241692066192627e-03
1.022822130471467972e-02
7.523748092353343964e-03
7.146756630390882492e-03
3.137777792289853096e-03
1.553699257783591747e-03
1.188144204206764698e-03
2.519033383578062057e-03
-1.826958032324910164e-04
2.945107873529195786e-03
1.332320971414446831e-04
4.522233270108699799e-03
3.034598892554640770e-03
3.021935408469289541e-04
-1.145494519732892513e-03
2.258100081235170364e-03
-1.713964622467756271e-03
2.508182078599929810e-03
2.399450633674860001e-03
1.325894263572990894e-04
-2.273011486977338791e-04
4.266602918505668640e-03
2.529646037146449089e-03
1.794899581000208855e-03
1.823780592530965805e-03
1.519803656265139580e-03
-1.094816485419869423e-03
3.856633789837360382e-03
3.902362659573554993e-03
1.417986350134015083e-03
1.315869041718542576e-03
2.100815763697028160e-04
2.628461457788944244e-03
4.303651861846446991e-03
1.945043331943452358e-04
1.743823057040572166e-03
7.545251864939928055e-04
2.481755800545215607e-03
-1.222754479385912418e-03
-1.212643808685243130e-03
1.311941014137119055e-05
-8.298800094053149223e-04
4.316910053603351116e-05
-2.233436098322272301e-04
-1.862242352217435837e-04
3.827001200988888741e-04
6.627425318583846092e-04
1.091181184165179729e-04
1.165172434411942959e-04
-2.221306785941123962e-04
-6.188739207573235035e-04
-6.124600768089294434e-04
2.795113832689821720e-04
-1.626392593607306480e-03
-2.224620198830962181e-03
-8.105791057460010052e-04
-5.695416126400232315e-03
-4.729280248284339905e-03
-1.750039285980165005e-03
8.858643705025315285e-04
-1.646175165660679340e-03
-1.799512072466313839e-03
-3.047349629923701286e-03
-3.464820096269249916e-03
-2.025335328653454781e-03
-2.716337330639362335e-04
-2.919402439147233963e-03
-2.051936695352196693e-03
-8.137414697557687759e-04
-2.034022472798824310e-03
-2.783919684588909149e-03
-4.625358618795871735e-03
-2.994169015437364578e-03
-4.966293461620807648e-03
-2.057707868516445160e-03
3.832166548818349838e-04
-2.971586538478732109e-03
-6.428486667573451996e-03
-3.974737133830785751e-03
-3.886817023158073425e-03
-4.050217103213071823e-03
-6.073734257370233536e-03
-5.596556700766086578e-03
-5.651085637509822845e-03
-4.960940685123205185e-03
-6.663331761956214905e-03
-4.432969726622104645e-03
-1.000251900404691696e-02
-6.529095582664012909e-03
-4.843180999159812927e-03
-6.151769310235977173e-03
-6.038386840373277664e-03
-7.417231332510709763e-03
-1.085563935339450836e-02
-7.127137389034032822e-03
-8.139454759657382965e-03
-5.518196150660514832e-03
-5.970105994492769241e-03
-1.098114345222711563e-02
-9.939431212842464447e-03
-1.123591605573892593e-02
-1.097693201154470444e-02
-1.228140667080879211e-02
-1.279577985405921936e-02
-1.349563430994749069e-02
-1.077747065573930740e-02
-1.112501230090856552e-02
-9.298731572926044464e-03
-1.149064395576715469e-02
-1.267380174249410629e-02
-1.218299567699432373e-02
-1.324348710477352142e-02
-1.193800754845142365e-02
-1.028049550950527191e-02
-9.767344221472740173e-03
-1.036065723747014999e-02
-1.001096144318580627e-02
-1.136178709566593170e-02
-1.366989593952894211e-02
-1.160053256899118423e-02
-8.283287286758422852e-03
-6.559611298143863678e-03
-8.626575581729412079e-03
-1.071591954678297043e-02
-9.738672524690628052e-03
-9.060758166015148163e-03
-8.873551152646541595e-03
-8.102128282189369202e-03
-4.822465125471353531e-03
-6.080128718167543411e-03
-8.291324600577354431e-03
-1.029602438211441040e-02
-2.874970901757478714e-03
-4.068660084158182144e-03
3.385295392945408821e-03
4.558778833597898483e-03
3.746501402929425240e-03
8.216953836381435394e-03
5.392833612859249115e-03
3.712877631187438965e-03
-7.560102734714746475e-03
-2.486497629433870316e-03
-8.375351317226886749e-03
-1.110095810145139694e-02
-3.894146531820297241e-02
-3.648320958018302917e-02
-3.894121572375297546e-02
-3.315135464072227478e-02
-1.827059499919414520e-02
4.032202996313571930e-03
-1.284726057201623917e-02
-1.839859783649444580e-02
1.463484019041061401e-02
1.836169324815273285e-02
2.100142650306224823e-02
1.973729021847248077e-02
3.107612580060958862e-02
2.807083725929260254e-02
3.170960769057273865e-02
4.051503166556358337e-02
2.593603730201721191e-02
-4.133598878979682922e-03
-2.514397352933883667e-02
-2.412986010313034058e-02
-6.349762529134750366e-02
-1.079101040959358215e-01
-9.633871167898178101e-02
-1.406248807907104492e-01
-1.771478801965713501e-01
-2.035893499851226807e-01
-1.354200392961502075e-01
-1.730090677738189697e-01
-2.003438770771026611e-01
-9.501394629478454590e-02
-7.697927206754684448e-02
-6.557848304510116577e-02
1.147773638367652893e-01
1.159195080399513245e-01
2.103537023067474365e-01
1.764541864395141602e-01
3.558347821235656738e-01
3.314878344535827637e-01
3.532195389270782471e-01
2.605991363525390625e-01
3.170544803142547607e-01
2.054657787084579468e-01
2.377847880125045776e-01
-1.295518968254327774e-02
-1.659059822559356689e-01
-2.349451631307601929e-01
-2.114972174167633057e-01
-2.031357586383819580e-01
-1.345910429954528809e-01
-1.277248412370681763e-01
-4.749716445803642273e-02
-1.291607506573200226e-02
5.733354017138481140e-02
4.289777949452400208e-02
6.286740303039550781e-02
6.990673393011093140e-02
1.311058253049850464e-01
1.036108061671257019e-01
1.304823756217956543e-01
7.673830538988113403e-02
6.263605505228042603e-02
2.321669273078441620e-02
1.699145510792732239e-02
-6.988702807575464249e-03
-1.920545846223831177e-02
-1.660652458667755127e-02
-1.378957740962505341e-02
-1.226532179862260818e-02
-2.728757448494434357e-03
1.363308285363018513e-03
7.721022237092256546e-03
5.541795399039983749e-03
4.469379317015409470e-03
7.098778150975704193e-03
3.120834473520517349e-03
6.967670284211635590e-03
3.728113137185573578e-03
4.470279440283775330e-03
7.927568629384040833e-03
6.629739422351121902e-03
5.971336737275123596e-03
7.774988189339637756e-03
8.768322877585887909e-03
7.262330502271652222e-03
9.021537844091653824e-04
-1.601212425157427788e-03
-8.039704407565295696e-04
9.384652366861701012e-05
-2.133743837475776672e-03
-4.027117043733596802e-03
-5.312358029186725616e-03
-6.916763260960578918e-03
-4.820888396352529526e-03
-4.887093789875507355e-03
-5.263512954115867615e-03
-8.559055626392364502e-03
-6.247549783438444138e-03
-1.268822513520717621e-02
-8.740775287151336670e-03
5.148204509168863297e-04
-7.021731231361627579e-03
-1.458836626261472702e-02
6.592588615603744984e-04
-1.226700562983751297e-02
-9.123127907514572144e-03
-2.236038912087678909e-03
1.806984841823577881e-02
-1.563774608075618744e-02
6.072079995647072792e-04
2.568672969937324524e-02
2.688517607748508453e-02
7.881584577262401581e-03
2.361061982810497284e-02
3.343503177165985107e-02
1.049963012337684631e-02
3.354603052139282227e-02
2.084903791546821594e-02
1.832905970513820648e-02
8.371504023671150208e-03
2.071522921323776245e-02
4.438971169292926788e-03
-5.923202843405306339e-05
3.750356845557689667e-03
1.739780651405453682e-03
-2.678434131667017937e-03
3.121142042800784111e-03
2.732094610109925270e-03
7.697766181081533432e-03
2.998101059347391129e-03
4.801076371222734451e-03
4.701885394752025604e-03
3.868906293064355850e-03
3.163099754601716995e-04
1.455493387766182423e-03
6.928991992026567459e-03
4.921096377074718475e-03
6.100109894759953022e-04
-2.050321199931204319e-04
1.672342885285615921e-03
-6.443943129852414131e-05
1.441629952751100063e-03
4.182275850325822830e-03
4.019251209683716297e-04
7.832432747818529606e-04
3.329348750412464142e-03
1.044257543981075287e-03
2.571985532995313406e-04
2.318436279892921448e-03
-3.182329819537699223e-04
3.917547874152660370e-03
6.377931684255599976e-03
1.904041972011327744e-03
8.806401747278869152e-04
2.167317550629377365e-03
4.056008066982030869e-03
5.121248308569192886e-03
4.494286142289638519e-03
5.163474939763545990e-03
3.474950557574629784e-03
2.022796310484409332e-03
2.585633657872676849e-03
-9.072305401787161827e-04
-1.239736098796129227e-03
-8.280475158244371414e-04
1.177018741145730019e-03
-9.076984133571386337e-04
-2.228348050266504288e-03
-1.608740538358688354e-03
-2.603054279461503029e-03
-1.430917996913194656e-03
-4.120314260944724083e-04
-1.432884600944817066e-03
1.264968421310186386e-03
-2.663593972101807594e-03
6.127245724201202393e-04
4.923021188005805016e-04
3.876662580296397209e-03
5.368267884477972984e-04
3.872843226417899132e-04
3.631530562415719032e-03
2.507445868104696274e-03
-9.832915384322404861e-05
-1.188236288726329803e-03
1.284116297028958797e-03
7.556151831522583961e-04
2.408569678664207458e-03
3.114882565569132566e-04
2.133433008566498756e-03
-6.507703801617026329e-04
-9.151845006272196770e-05
1.866687962319701910e-04
-1.717723673209547997e-03
-4.788516089320182800e-04
-1.963389338925480843e-03
5.076139932498335838e-04
-4.626090521924197674e-04
-2.031458076089620590e-03
-4.236915148794651031e-03
-1.658778521232306957e-03
-1.477532321587204933e-03
1.494974130764603615e-03
-2.082800492644309998e-04
-1.336713205091655254e-03
-3.535725641995668411e-03
2.154825255274772644e-03
-3.518119221553206444e-03
1.038224436342716217e-03
-4.974078387022018433e-03
-5.739067681133747101e-03
-2.433820161968469620e-03
-3.075476037338376045e-03
-3.177939914166927338e-03
-5.117894150316715240e-03
-3.676569089293479919e-03
-4.364961292594671249e-03
-2.506484277546405792e-03
-1.218187622725963593e-03
-3.886976744979619980e-03
-4.374079871922731400e-03
-9.014112874865531921e-04
-3.575515234842896461e-03
-1.985620474442839622e-03
-3.891408676281571388e-03
-3.153248224407434464e-03
-3.843417624011635780e-03
-3.132435260340571404e-03
-9.874071693047881126e-04
-6.106506916694343090e-04
-2.179010072723031044e-03
-1.271751360036432743e-03
-1.358954934403300285e-03
-2.712549176067113876e-03
-2.559090964496135712e-03
-3.816019976511597633e-03
-2.744573168456554413e-03
-2.452470827847719193e-03
-2.310619456693530083e-03
-3.288441570475697517e-03
-4.166443832218647003e-03
-3.995306324213743210e-03
-4.194323439151048660e-03
-3.371273167431354523e-03
-4.983704537153244019e-03
-3.787601366639137268e-03
-6.042132154107093811e-04
-4.825409967452287674e-03
-2.518926630727946758e-04
-4.616409540176391602e-03
-3.104581963270902634e-03
-3.430028446018695831e-03
4.415512667037546635e-04
-2.421821933239698410e-03
1.719137886539101601e-03
-3.259924706071615219e-03
-9.106914512813091278e-05
-3.826035419479012489e-03
-2.222365234047174454e-03
1.256665331311523914e-03
-1.645996002480387688e-03
9.086555801331996918e-04
-2.341711893677711487e-03
-3.336521796882152557e-03
-4.132955800741910934e-03
5.016537383198738098e-03
4.909991403110325336e-04
5.162223707884550095e-03
3.221969818696379662e-03
5.919785238802433014e-03
4.245501942932605743e-03
3.797428216785192490e-03
-4.028993425890803337e-04
-1.842058030888438225e-03
3.086929209530353546e-04
-1.971829915419220924e-03
2.137503586709499359e-03
4.800216294825077057e-03
5.174457328394055367e-04
-8.927883463911712170e-04
-1.981027424335479736e-03
-5.781977670267224312e-04
-3.372242790646851063e-04
-6.295328494161367416e-04
1.635187771171331406e-03
4.272270482033491135e-03
1.462568063288927078e-03
-7.174561033025383949e-04
-1.391560421325266361e-03
-1.716691767796874046e-03
7.502981461584568024e-04
-9.818365797400474548e-04
-2.091082511469721794e-03
1.584301469847559929e-03
-6.415358511731028557e-04
-1.018633134663105011e-03
-1.880988245829939842e-03
-4.605795256793498993e-03
-3.589855972677469254e-03
-4.159242846071720123e-03
-2.259479369968175888e-03
-1.225927495397627354e-03
-2.020583953708410263e-03
-4.061003215610980988e-03
-5.045978352427482605e-03
-7.763372268527746201e-03
-4.015703685581684113e-03
-6.380332168191671371e-03
-2.143214922398328781e-03
-5.243639461696147919e-03
-4.510493483394384384e-03
-6.815532222390174866e-03
-4.263476468622684479e-03
-8.844451978802680969e-03
-8.639678359031677246e-03
-8.952201344072818756e-03
-1.113888248801231384e-02
-8.989310823380947113e-03
-5.382888950407505035e-03
-5.096343811601400375e-03
-9.374484419822692871e-03
-8.352711796760559082e-03
-1.154483202844858170e-02
-1.072440575808286667e-02
-1.030166633427143097e-02
-1.021763402968645096e-02
-9.457076899707317352e-03
-9.704941883683204651e-03
-1.037845853716135025e-02
-6.414684932678937912e-03
-1.124192029237747192e-02
-8.463254198431968689e-03
-8.959095925092697144e-03
-1.002305280417203903e-02
-9.791328571736812592e-03
-1.004101522266864777e-02
-1.209637615829706192e-02
-1.510408148169517517e-02
1.663510804064571857e-03
-2.030796371400356293e-02
-2.096423506736755371e-02
-5.510887131094932556e-03
-1.861412078142166138e-03
-6.047347094863653183e-03
1.524190697818994522e-02
5.341622745618224144e-04
1.671731844544410706e-02
7.375395391136407852e-03
2.698057517409324646e-02
1.740462332963943481e-02
2.122936770319938660e-02
1.832120120525360107e-02
3.408130258321762085e-02
2.296320162713527679e-02
4.469250561669468880e-04
9.604738093912601471e-03
8.525629527866840363e-03
4.651906900107860565e-03
2.280988264828920364e-03
1.947075361385941505e-03
9.762738773133605719e-05
-1.165771391242742538e-02
-2.328855171799659729e-02
-1.805815729312598705e-03
-1.530275493860244751e-02
-1.149728149175643921e-02
-1.441959012299776077e-02
-1.688216580078005791e-03
-2.281017601490020752e-03
-1.078250352293252945e-02
3.891635918989777565e-03
-2.082628011703491211e-02
-9.991233237087726593e-03
1.741966605186462402e-02
6.038116663694381714e-02
-2.040010318160057068e-02
-2.673820359632372856e-03
1.943873986601829529e-02
-3.270692005753517151e-02
-5.360276997089385986e-02
-6.252715736627578735e-02
-1.797976195812225342e-01
-1.983694881200790405e-01
-1.422421932220458984e-01
-1.663466542959213257e-01
-2.496136575937271118e-01
-1.902392804622650146e-01
-1.550401598215103149e-01
-1.176886186003684998e-01
7.571069989353418350e-03
-3.311706008389592171e-03
5.110392346978187561e-02
1.947813332080841064e-01
1.581763178110122681e-01
3.861711621284484863e-01
2.938684523105621338e-01
3.899152576923370361e-01
3.236038088798522949e-01
3.870284259319305420e-01
2.469565123319625854e-01
2.274695485830307007e-01
-3.670329228043556213e-02
-1.236248388886451721e-01
-2.715297937393188477e-01
-2.114716172218322754e-01
-2.497666627168655396e-01
-1.501207351684570312e-01
-1.262899041175842285e-01
9.102622047066688538e-03
2.261272072792053223e-02
6.439097970724105835e-02
5.628537386655807495e-02
4.852976649999618530e-02
6.145679950714111328e-02
1.136788576841354370e-01
1.035593077540397644e-01
7.608844339847564697e-02
8.228545635938644409e-02
4.739152640104293823e-02
3.413119539618492126e-02
1.279020332731306553e-03
-1.378194987773895264e-02
-3.886765567585825920e-03
7.159340195357799530e-03
-5.229155998677015305e-03
-7.735619787126779556e-03
-5.246810149401426315e-03
-3.045112360268831253e-03
2.944780280813574791e-04
-1.943467068485915661e-04
1.205533929169178009e-02
4.692186135798692703e-03
7.690017577260732651e-03
3.249787259846925735e-03
1.347389444708824158e-02
1.097981538623571396e-02
9.082140401005744934e-03
7.317576091736555099e-03
9.091120213270187378e-03
1.401689555495977402e-02
8.750306442379951477e-03
7.995153777301311493e-03
2.500351751223206520e-03
6.775278598070144653e-03
-1.979755237698554993e-03
3.992762067355215549e-04
-7.300606463104486465e-03
-3.712633624672889709e-04
3.224693937227129936e-03
-1.062741316854953766e-02
-1.146181020885705948e-02
-2.819388406351208687e-03
-8.629109710454940796e-03
-1.124468911439180374e-02
3.065804950892925262e-03
-1.133299805223941803e-02
-1.539034862071275711e-02
-9.549506008625030518e-03
1.831688731908798218e-02
-2.008742280304431915e-02
6.102518644183874130e-03
6.417260505259037018e-03
1.924359239637851715e-02
1.053060684353113174e-02
2.683153748512268066e-02
2.211069501936435699e-02
-4.762635566294193268e-03
3.799086064100265503e-02
3.011435829102993011e-02
3.785515949130058289e-02
1.216529496014118195e-02
3.367954492568969727e-02
1.723611913621425629e-02
1.412625331431627274e-02
-3.454579506069421768e-03
-2.446567523293197155e-04
6.788314785808324814e-03
1.376787200570106506e-03
6.049219053238630295e-03
9.879433782771229744e-04
9.580370970070362091e-03
1.351594924926757812e-02
6.658667698502540588e-03
4.223142284899950027e-03
1.105957757681608200e-02
9.294440969824790955e-03
1.107347384095191956e-02
1.088961679488420486e-02
5.212708376348018646e-03
9.356814436614513397e-03
4.695717245340347290e-03
3.874250687658786774e-03
4.668971523642539978e-04
4.913695622235536575e-03
3.826985601335763931e-03
1.626551616936922073e-03
3.584936261177062988e-03
3.256763797253370285e-03
3.766147885471582413e-03
4.190510138869285583e-03
5.246644839644432068e-03
3.116135951131582260e-03
3.576963441446423531e-03
2.203523414209485054e-03
3.203778993338346481e-03
2.287667477503418922e-03
7.876617601141333580e-04
9.249086724594235420e-04
1.123285386711359024e-03
5.382964154705405235e-04
5.848087603226304054e-04
1.980985980480909348e-04
3.767799586057662964e-03
1.210473827086389065e-03
2.547405427321791649e-03
3.128605894744396210e-03
2.027275739237666130e-03
1.252671936526894569e-03
2.016999060288071632e-03
9.884382598102092743e-04
-1.793589908629655838e-04
4.668998531997203827e-03
2.917321398854255676e-04
5.563884042203426361e-04
1.906507415696978569e-03
3.072097897529602051e-03
-1.343172625638544559e-03
2.925935201346874237e-03
7.318769930861890316e-04
3.718442982062697411e-03
2.026980277150869370e-03
6.499201990664005280e-04
3.698555054143071175e-03
2.126181498169898987e-04
2.721033059060573578e-03
7.539173820987343788e-04
4.583927511703222990e-04
2.228240016847848892e-03
4.071011673659086227e-03
1.870742999017238617e-03
1.316047739237546921e-03
1.906095189042389393e-03
3.862238023430109024e-03
-6.422758451662957668e-04
-4.254846135154366493e-04
-4.585582297295331955e-03
-2.892239717766642570e-05
1.676102867349982262e-03
1.200533122755587101e-03
3.720621578395366669e-03
-1.187074958579614758e-04
1.124577363952994347e-03
-1.466935966163873672e-03
-4.970235750079154968e-05
-3.387755714356899261e-04
-5.250088870525360107e-04
-9.945365600287914276e-04
1.216913573443889618e-03
-2.332210075110197067e-03
-3.411501413211226463e-03
-5.852953530848026276e-03
-2.851932775229215622e-03
-2.286909613758325577e-03
-1.687590382061898708e-03
-2.495897933840751648e-03
-7.806904613971710205e-04
-2.183943754062056541e-03
-6.958128651604056358e-04
-2.599949948489665985e-05
-1.523451530374586582e-03
-2.511361148208379745e-03
-9.860247373580932617e-04
-1.906046527437865734e-03
6.204458768479526043e-04
1.834468566812574863e-04
-3.036416834220290184e-03
-5.490382667630910873e-03
-3.213045652955770493e-03
-3.633359679952263832e-03
-5.276271142065525055e-03
-4.011888056993484497e-03
-3.459014929831027985e-03
-3.431122750043869019e-03
-5.519367754459381104e-03
-2.873902209103107452e-03
-2.296032849699258804e-03
-5.254044663161039352e-04
-3.254157956689596176e-03
-2.428721636533737183e-03
-3.179752966389060020e-03
-1.113440841436386108e-03
-2.657623961567878723e-03
-7.569260429590940475e-03
-6.122175138443708420e-03
-4.290595650672912598e-03
-3.490560455247759819e-03
-2.006524708122014999e-03
-1.184468390420079231e-03
-4.120132885873317719e-03
-6.159331649541854858e-03
-5.537219811230897903e-03
-5.956520792096853256e-03
-2.114939503371715546e-03
-4.931923933327198029e-03
-6.529726088047027588e-03
-5.042773671448230743e-03
-3.120409324765205383e-03
-1.902792137116193771e-03
-5.924304015934467316e-03
-5.171756260097026825e-03
-6.524596828967332840e-03
-7.026392035186290741e-03
-6.041698623448610306e-03
-6.057986523956060410e-03
-1.050786115229129791e-02
-5.969719495624303818e-03
-5.209446884691715240e-03
-5.178992636501789093e-03
-9.103284217417240143e-03
-8.931457996368408203e-03
-1.102725788950920105e-02
-1.001520361751317978e-02
-5.659742280840873718e-03
-8.477281779050827026e-03
-5.621555261313915253e-03
-7.587774656713008881e-03
-7.733338978141546249e-03
-8.342551067471504211e-03
-7.044828962534666061e-03
-9.805947542190551758e-03
-9.261129423975944519e-03
-7.259226869791746140e-03
-5.827435292303562164e-03
-8.168441243469715118e-03
-6.657563149929046631e-03
-8.554302155971527100e-03
-5.556175019592046738e-03
-2.637423574924468994e-03
-7.911873981356620789e-03
-3.305412596091628075e-03
-6.298960186541080475e-03
-2.293839119374752045e-03
8.954359218478202820e-04
-1.273550558835268021e-03
-7.374383509159088135e-03
-4.654347896575927734e-03
9.191564167849719524e-04
3.443392692133784294e-03
1.539627206511795521e-03
4.567056894302368164e-03
1.903494121506810188e-03
8.130943169817328453e-04
-1.683220907580107450e-04
-6.698577664792537689e-03
-5.979484412819147110e-03
-7.484206929802894592e-03
-9.768925607204437256e-03
-8.174402639269828796e-03
-1.759435422718524933e-02
-2.867697738111019135e-02
-3.196714445948600769e-02
-1.762372255325317383e-02
-1.111929025501012802e-02
-1.443206798285245895e-02
-2.336088009178638458e-02
-2.740935049951076508e-02
3.184595378115773201e-03
8.655656711198389530e-04
1.876664161682128906e-02
9.665285237133502960e-03
1.125643029808998108e-02
2.908329293131828308e-02
4.779959097504615784e-02
4.115924611687660217e-02
2.560412883758544922e-02
8.967511355876922607e-03
-4.693754483014345169e-03
-2.980605326592922211e-02
-4.635747522115707397e-02
-9.354350715875625610e-02
-1.197780296206474304e-01
-1.695631295442581177e-01
-1.500679701566696167e-01
-1.804265975952148438e-01
-1.966305375099182129e-01
-1.860229969024658203e-01
-1.570126265287399292e-01
-1.079696044325828552e-01
-9.577453136444091797e-02
7.095366716384887695e-02
6.810928881168365479e-02
1.079326272010803223e-01
2.675209641456604004e-01
2.230513691902160645e-01
3.693673312664031982e-01
2.976254522800445557e-01
3.052412867546081543e-01
2.699017524719238281e-01
2.499201297760009766e-01
1.577578336000442505e-01
5.755233392119407654e-02
-1.106351837515830994e-01
-1.793193072080612183e-01
-1.320442259311676025e-01
-1.252022683620452881e-01
-8.242987096309661865e-02
-1.022452637553215027e-01
-4.668282344937324524e-02
2.474920637905597687e-02
-4.842255264520645142e-03
9.867785498499870300e-03
1.837232150137424469e-02
2.775299735367298126e-02
4.994567111134529114e-02
4.857712984085083008e-02
4.046754911541938782e-02
3.733699768781661987e-02
1.287319045513868332e-02
1.682380586862564087e-02
-4.045567940920591354e-03
-6.537431618198752403e-04
4.654380958527326584e-03
5.895767826586961746e-03
5.697105545550584793e-03
4.414497874677181244e-03
1.870606560260057449e-03
-3.129702963633462787e-05
-2.842262620106339455e-03
7.133088074624538422e-04
-6.956953438930213451e-05
-2.319000661373138428e-03
-2.933934330940246582e-03
-1.908328267745673656e-03
-3.020238596946001053e-03
-1.746043795719742775e-03
-2.978826174512505531e-03
-1.641830895096063614e-03
-1.194843556731939316e-03
-7.922086864709854126e-03
-2.865609480068087578e-03
-5.529937800019979477e-03
1.332687446847558022e-03
-1.635961234569549561e-03
2.811278216540813446e-03
2.044776454567909241e-03
-2.543778857216238976e-03
7.397665176540613174e-03
8.066867478191852570e-03
1.022234838455915451e-02
7.177852094173431396e-03
9.574137628078460693e-03
1.299166399985551834e-02
1.123637612909078598e-02
8.975252509117126465e-03
4.293760284781455994e-03
4.827098920941352844e-03
-1.887308026198297739e-04
4.851068952120840549e-04
-5.256047006696462631e-05
5.377200432121753693e-04
-1.577382790856063366e-03
-7.680608890950679779e-03
2.320040483027696609e-03
-8.983517996966838837e-03
-7.633791770786046982e-03
1.099631306715309620e-03
4.212136846035718918e-03
-1.650015241466462612e-03
5.086470860987901688e-03
1.332086510956287384e-02
1.156720891594886780e-02
8.533785119652748108e-03
4.488228354603052139e-03
2.110427245497703552e-02
1.119595579802989960e-02
2.580628730356693268e-02
1.736542955040931702e-02
1.852496713399887085e-02
1.105258055031299591e-02
9.817017242312431335e-03
2.849949058145284653e-03
9.654393070377409458e-04
7.292461115866899490e-03
6.742642261087894440e-03
7.800129242241382599e-03
6.794944871217012405e-03
1.661435584537684917e-03
6.123044528067111969e-03
3.862780984491109848e-03
2.718781121075153351e-03
2.870462194550782442e-04
2.320523140951991081e-03
1.059243106283247471e-03
-2.872735261917114258e-03
-1.811431371606886387e-03
3.865722101181745529e-04
9.660059586167335510e-04
-1.919353031553328037e-03
-3.836286254227161407e-03
5.259355384623631835e-05
-1.720032538287341595e-03
2.654828364029526711e-03
2.661647740751504898e-03
1.649263664148747921e-03
3.740692511200904846e-03
1.341565395705401897e-03
4.176435992121696472e-03
1.676883082836866379e-03
2.475977176800370216e-03
-1.496329088695347309e-03
3.107547061517834663e-03
3.360266797244548798e-03
2.502939663827419281e-03
3.474035533145070076e-03
2.944762352854013443e-03
2.785948337987065315e-03
2.558189909905195236e-03
4.321022890508174896e-03
5.343382246792316437e-03
4.358082078397274017e-03
4.382824990898370743e-03
3.512246534228324890e-03
3.624985460191965103e-03
1.118127140216529369e-03
1.114761456847190857e-03
2.091762842610478401e-03
1.523970742709934711e-03
2.936839126050472260e-03
2.890990581363439560e-04
-4.374127602204680443e-04
1.697600819170475006e-04
9.183289366774260998e-04
3.745811525732278824e-03
2.546228235587477684e-03
3.499041777104139328e-03
2.626933157444000244e-03
8.630582597106695175e-04
1.427010749466717243e-03
-6.575612351298332214e-04
-9.925533086061477661e-04
-2.839351072907447815e-04
1.241921214386820793e-03
1.860875054262578487e-04
7.076696492731571198e-04
-1.358043635264039040e-03
2.841286477632820606e-04
1.017951406538486481e-03
2.451209118589758873e-03
2.596146427094936371e-03
6.508697988465428352e-04
-7.846088847145438194e-04
2.317364560440182686e-03
-1.226062420755624771e-03
2.750242128968238831e-03
6.922137690708041191e-04
-1.663388567976653576e-03
-1.128163654357194901e-03
-1.612726482562720776e-03
-1.379983499646186829e-03
-3.531527472659945488e-04
2.011931734159588814e-03
-4.619408282451331615e-04
1.695723040029406548e-04
8.449722663499414921e-04
-1.268663909286260605e-03
8.850141311995685101e-04
2.587731229141354561e-03
1.763492007739841938e-03
-1.047998201102018356e-03
-9.224822861142456532e-04
-1.033113338053226471e-03
-1.814551535062491894e-03
-2.602972788736224174e-03
-2.243068302050232887e-03
-3.077421570196747780e-03
-3.113700076937675476e-03
-1.558781019411981106e-03
-4.605560097843408585e-04
-4.063667729496955872e-03
-3.582571865990757942e-03
1.531728776171803474e-04
-2.519708359614014626e-04
-1.829119166359305382e-03
-2.816749038174748421e-03
-2.414239104837179184e-03
-1.713728299364447594e-03
-1.250719651579856873e-04
-2.310501411557197571e-03
-3.698414424434304237e-03
-2.097929827868938446e-03
-3.873277921229600906e-03
-2.329869894310832024e-03
-1.286500017158687115e-03
-1.367315067909657955e-03
-2.353926887735724449e-03
-9.083249606192111969e-04
-4.871209384873509407e-04
-3.492302959784865379e-03
-4.284257069230079651e-03
-1.874747569672763348e-03
-5.165818613022565842e-03
-3.629285609349608421e-03
-2.579568419605493546e-03
-3.980991430580615997e-03
-4.348985850811004639e-03
-3.013685112819075584e-03
-2.291881712153553963e-03
-8.878199150785803795e-04
1.515510492026805878e-03
1.905220560729503632e-03
2.651475137099623680e-03
-2.477325033396482468e-04
-1.191661227494478226e-03
-6.726112915202975273e-04
9.922760073095560074e-04
-1.399420085363090038e-03
-4.013678058981895447e-03
-1.849901513196527958e-03
-8.756021270528435707e-04
-4.124001134186983109e-04
-4.467681050300598145e-03
-2.967599779367446899e-03
-5.287700332701206207e-03
-2.174064982682466507e-03
-3.311890410259366035e-03
-3.047120291739702225e-03
-5.951411556452512741e-03
-1.608552644029259682e-03
3.287952858954668045e-05
-2.894189907237887383e-03
-4.690581467002630234e-03
-5.600223317742347717e-03
-4.147978033870458603e-03
-3.866908140480518341e-03
-2.523597795516252518e-03
-3.683286253362894058e-03
-2.934168558567762375e-03
-4.308381117880344391e-03
-5.150106735527515411e-03
-3.820782992988824844e-03
-2.120857127010822296e-03
-2.501377370208501816e-03
1.501747407019138336e-03
-1.752112759277224541e-03
-8.744156220927834511e-04
-1.096299034543335438e-03
-2.767395228147506714e-03
-5.654065171256661415e-04
-3.019599011167883873e-03
-3.242216072976589203e-03
-1.606414560228586197e-03
1.540892480988986790e-05
-1.731017022393643856e-03
-8.413398754782974720e-04
2.478002861607819796e-04
7.564668194390833378e-04
1.033480395562946796e-03
-1.213627547258511186e-04
-2.571773366071283817e-04
-1.303063763771206141e-04
9.151811827905476093e-04
8.794994791969656944e-04
1.793800911400467157e-04
1.500756829045712948e-03
-1.091592945158481598e-03
-3.297356306575238705e-04
-1.000228337943553925e-03
2.993831294588744640e-04
-1.486009336076676846e-03
-3.277683397755026817e-03
-1.696863328106701374e-03
-1.910453080199658871e-03
-2.852550009265542030e-03
-2.989006927236914635e-03
-2.351942937821149826e-03
-4.403413273394107819e-03
-6.338698323816061020e-03
-3.600353142246603966e-03
-6.589221302419900894e-03
-5.343730095773935318e-03
-6.909099407494068146e-03
-4.209517035633325577e-03
-3.959735855460166931e-03
-3.765160450711846352e-03
-1.948302844539284706e-03
5.667782854288816452e-03
2.048174617812037468e-03
1.043290132656693459e-03
5.517336539924144745e-03
4.500153008848428726e-03
6.717135198414325714e-03
6.451663095504045486e-03
5.094557534903287888e-03
2.638588426634669304e-03
3.914922475814819336e-03
2.093296032398939133e-03
1.135912025347352028e-03
7.001791382208466530e-04
-3.634014574345201254e-04
-1.825408078730106354e-03
-3.999219625256955624e-04
-1.629091275390237570e-04
-1.575926668010652065e-03
-1.392716658301651478e-04
-1.910252263769507408e-03
-1.374264364130795002e-03
-2.625111024826765060e-03
-2.927750349044799805e-03
-3.657276974990963936e-03
-3.087462158873677254e-03
-5.676486063748598099e-03
-4.225703887641429901e-03
-4.999739117920398712e-03
-2.466050907969474792e-03
-2.080551581457257271e-03
-8.377759368158876896e-04
1.556486124172806740e-03
1.835574745200574398e-03
3.891126718372106552e-03
4.047597758471965790e-03
7.128577679395675659e-03
2.983449026942253113e-03
9.047271683812141418e-03
4.719800781458616257e-03
4.457810427993535995e-03
3.027957165613770485e-03
4.506639670580625534e-03
2.990568988025188446e-03
1.217899378389120102e-03
-4.690614296123385429e-04
-1.194731099531054497e-03
-1.110239827539771795e-04
4.386840737424790859e-04
2.460108371451497078e-03
1.712067285552620888e-03
1.687390496954321861e-03
1.385484705679118633e-03
-1.321189338341355324e-04
-1.588039798662066460e-03
7.775087142363190651e-04
1.176190329715609550e-03
1.424243673682212830e-03
-2.852503093890845776e-04
1.221038633957505226e-03
-5.749935517087578773e-04
8.819295908324420452e-05
-1.073203049600124359e-03
-2.351969946175813675e-03
-1.036905450746417046e-04
-3.669508732855319977e-03
-2.776320558041334152e-03
-2.497932873666286469e-03
-8.970943163149058819e-04
-1.424104673787951469e-03
4.909554845653474331e-04
9.063144098035991192e-04
-3.843330487143248320e-04
-7.975695189088582993e-04
4.862432833760976791e-04
-8.470977190881967545e-04
-4.031756834592670202e-04
9.246991830877959728e-04
1.811121474020183086e-03
1.799807301722466946e-03
-4.542286042124032974e-04
-1.380825298838317394e-03
-1.917699351906776428e-03
-2.441593096591532230e-05
3.906674683094024658e-04
1.396464358549565077e-04
7.699652342125773430e-04
8.361092768609523773e-04
-9.256635676138103008e-04
-7.078436901792883873e-04
-1.541446428745985031e-03
2.198229078203439713e-03
1.676662708632647991e-03
3.975961590185761452e-06
1.405914081260561943e-03
2.049737609922885895e-03
-1.258657313883304596e-03
1.924913376569747925e-03
2.691261237487196922e-03
1.283642952330410480e-03
1.577139133587479591e-03
2.076797885820269585e-03
2.823798218742012978e-03
1.930353930220007896e-03
-9.216202888637781143e-04
1.283492310903966427e-03
2.997425617650151253e-04
-1.656999811530113220e-03
-2.177352318540215492e-03
-3.001909353770315647e-04
-6.995324511080980301e-04
-1.932216458953917027e-03
-1.808564527891576290e-03
-2.656414639204740524e-03
-3.015638503711670637e-04
1.126375398598611355e-03
9.797016391530632973e-04
-3.076464345213025808e-04
-1.043644733726978302e-03
-8.455977076664566994e-04
1.254692208021879196e-03
-6.483208271674811840e-04
-6.580119370482861996e-04
-2.486110432073473930e-03
-9.067634819075465202e-04
-1.686603529378771782e-03
-1.473444979637861252e-03
-1.066988450475037098e-03
2.524681622162461281e-05
2.903148124460130930e-04
4.407165688462555408e-04
6.572210695594549179e-04
-5.256013828329741955e-04
2.469940576702356339e-03
2.003625733777880669e-03
1.428657997166737914e-04
1.343140262179076672e-03
1.678558764979243279e-03
4.020557389594614506e-04
2.926149463746696711e-04
-6.021328736096620560e-04
-7.900744094513356686e-06
-1.773623866029083729e-03
-5.990889621898531914e-04
-2.558214124292135239e-03
-1.009283238090574741e-03
-1.697433763183653355e-04
-3.163863439112901688e-03
-6.234105676412582397e-04
-1.867360435426235199e-03
-2.457926981151103973e-03
-1.302722725085914135e-03
-3.219727193936705589e-03
-1.796373282559216022e-03
-3.755610669031739235e-03
-1.732869539409875870e-03
-4.032687749713659286e-03
-2.335544908419251442e-03
-2.571864752098917961e-03
-3.727871226146817207e-04
-1.414362108334898949e-03
-5.368601996451616287e-04
1.573099987581372261e-03
3.110609482973814011e-03
6.213607266545295715e-03
6.285920273512601852e-03
6.797246634960174561e-03
1.853308873251080513e-03
6.199787370860576630e-03
3.593831555917859077e-03
6.036209873855113983e-03
8.289996534585952759e-03
5.107431672513484955e-03
2.595290075987577438e-03
1.972749829292297363e-03
-2.184303011745214462e-03
2.475052140653133392e-03
4.168809857219457626e-03
2.588466741144657135e-03
3.292967099696397781e-03
2.069939859211444855e-03
-1.662066671997308731e-03
2.156962174922227859e-03
-4.989987355656921864e-04
1.042643212713301182e-03
1.502918777987360954e-03
1.947495620697736740e-03
1.158597224275581539e-04
-2.713523863349109888e-04
9.567692177370190620e-05
1.219248399138450623e-03
5.634353728964924812e-04
4.957898054271936417e-04
2.538367640227079391e-03
2.481836825609207153e-03
2.045087050646543503e-03
1.992775127291679382e-03
1.991087570786476135e-03
6.592206191271543503e-04
3.468596551101654768e-04
8.625416085124015808e-04
-1.980719855055212975e-03
-2.341034589335322380e-03
-2.639784244820475578e-03
-1.068937359377741814e-03
-9.961861651390790939e-04
-2.906299429014325142e-03
-3.115409053862094879e-03
-3.233670024201273918e-03
-1.343315350823104382e-03
-8.413434261456131935e-05
-2.012164797633886337e-03
-5.016025388613343239e-04
-2.799521898850798607e-04
-2.533732913434505463e-04
-1.643460476770997047e-03
-1.925321063026785851e-03
-1.573130721226334572e-03
-3.513340139761567116e-03
-2.866135677322745323e-03
-2.446375787258148193e-03
-2.504205796867609024e-03
-4.871583543717861176e-03
-2.469312166795134544e-03
1.296807022299617529e-04
-2.074647229164838791e-03
1.236191019415855408e-03
-9.028238127939403057e-04
-3.548386739566922188e-04
-1.349873055005446076e-04
6.749598542228341103e-04
2.809084253385663033e-04
1.035175286233425140e-03
4.017870232928544283e-04
-2.770085353404283524e-03
1.789988018572330475e-03
-2.528318436816334724e-03
-6.016616243869066238e-04
-5.770112620666623116e-04
9.472457459196448326e-04
6.351101910695433617e-05
4.391025751829147339e-03
3.343595424667000771e-03
3.283758414909243584e-03
3.131813369691371918e-03
3.274764399975538254e-03
5.356715060770511627e-03
6.151658482849597931e-03
2.257766900584101677e-03
3.692345460876822472e-03
5.132541991770267487e-03
1.948329154402017593e-03
1.488951034843921661e-03
-1.340834540314972401e-03
3.480667248368263245e-03
2.908852649852633476e-03
3.372570499777793884e-03
9.674929897300899029e-04
1.669118879362940788e-03
3.249762812629342079e-03
2.264941576868295670e-03
2.245261799544095993e-03
4.845182120334357023e-04
9.535850840620696545e-04
2.368710003793239594e-03
1.645178068429231644e-03
2.096473937854170799e-03
2.750922576524317265e-04
2.665219362825155258e-03
9.452982340008020401e-05
1.674355124123394489e-03
1.043642987497150898e-03
1.225399784743785858e-03
-1.148434472270309925e-03
4.733281093649566174e-04
-5.603655590675771236e-04
-3.133906284347176552e-04
-1.128491130657494068e-03
-1.304997364059090614e-03
2.496151719242334366e-04
1.216324861161410809e-03
-4.549234290607273579e-04
-1.965590286999940872e-03
1.981872832402586937e-03
-7.008210523054003716e-04
1.621461240574717522e-03
-1.612754422239959240e-03
-1.145101385191082954e-03
-1.077741035260260105e-03
-6.016998086124658585e-04
-1.879021001514047384e-04
-5.732582649216055870e-04
-4.450286738574504852e-03
-2.529368735849857330e-03
-1.947819488123059273e-03
3.440637665335088968e-04
-2.404506783932447433e-03
-1.626835670322179794e-03
-4.179518437013030052e-04
4.115347401238977909e-04
1.101432600989937782e-03
1.463277265429496765e-03
2.219102811068296432e-03
1.845284714363515377e-04
1.746206544339656830e-03
7.852688431739807129e-04
1.815995783545076847e-04
7.745087496004998684e-04
2.657060977071523666e-03
2.364169806241989136e-03
2.217721659690141678e-03
1.338019850663840771e-03
2.084555802866816521e-03
-5.674840649589896202e-04
5.684029893018305302e-04
2.514450112357735634e-03
9.047822677530348301e-04
1.286704209633171558e-03
-3.600357449613511562e-04
-5.791054572910070419e-04
9.414043743163347244e-04
6.881019799038767815e-04
-1.636187895201146603e-03
2.817761618643999100e-03
1.342176459729671478e-03
8.508995524607598782e-04
-6.193126318976283073e-04
2.601437736302614212e-03
-1.220566453412175179e-03
1.476659439504146576e-03
1.014315057545900345e-04
2.472444437444210052e-03
1.196624711155891418e-03
9.632594883441925049e-04
-9.529698290862143040e-04
-6.395499221980571747e-04
1.770675997249782085e-03
3.210853319615125656e-03
-9.828884503804147243e-05
-6.042537279427051544e-05
-2.494273241609334946e-03
8.398751378990709782e-04
2.917210804298520088e-04
1.212363946251571178e-03
9.336622315458953381e-05
1.897051814012229443e-03
2.243614289909601212e-05
7.068059640005230904e-04
2.514920663088560104e-03
1.022105338051915169e-03
-1.063199248164892197e-03
7.867219392210245132e-04
-1.690163742750883102e-03
1.080293441191315651e-03
-2.266180468723177910e-03
-2.135318471118807793e-03
-1.924224081449210644e-03
3.260737867094576359e-04
-7.958856876939535141e-04
-1.422887202352285385e-03
-1.548157189972698689e-03
-1.011308981105685234e-03
-2.270796103402972221e-03
1.573505578562617302e-03
-4.920018254779279232e-04
1.714447629638016224e-03
1.081731170415878296e-03
-1.324254786595702171e-03
-2.688633743673563004e-03
-1.286099664866924286e-03
4.209490143693983555e-04
-1.558009535074234009e-04
5.683033377863466740e-04
-1.775468699634075165e-03
-1.618780370336025953e-04
8.604050381109118462e-04
2.483730670064687729e-03
-2.654524869285523891e-04
1.367798773571848869e-03
-4.293047240935266018e-04
2.522950991988182068e-03
-4.368964000605046749e-04
7.389171514660120010e-04
-1.707061892375349998e-03
7.479861960746347904e-04
-1.238843076862394810e-03
9.976760484278202057e-04
-1.056794309988617897e-03
-1.826146617531776428e-03
-5.806434201076626778e-04
1.199121586978435516e-03
1.336727524176239967e-03
-7.120273075997829437e-04
7.957967463880777359e-04
-2.261833287775516510e-05
6.132764974609017372e-04
-1.646543620154261589e-03
-3.405564639251679182e-04
-2.795949112623929977e-03
-1.150108175352215767e-03
4.057712794747203588e-04
-1.839115633629262447e-03
-2.448800485581159592e-03
-2.897949889302253723e-03
-2.650188980624079704e-03
-4.813864361494779587e-04
-2.344421111047267914e-03
-9.112770203500986099e-04
-1.703451387584209442e-03
6.370195478666573763e-05
1.915086642839014530e-03
-1.283487654291093349e-03
-5.868226289749145508e-04
-9.702980169095098972e-04
-8.168042986653745174e-04
-1.141481450758874416e-03
-2.804865594953298569e-03
-2.295508282259106636e-03
-1.271579531021416187e-03
1.249907072633504868e-04
-1.035897061228752136e-03
-1.548789907246828079e-03
-4.059274215251207352e-03
-1.536679686978459358e-03
-2.982972189784049988e-03
-6.795650697313249111e-04
-1.266482169739902020e-03
7.309278007596731186e-04
-6.766791921108961105e-04
2.900407416746020317e-04
-1.674629515036940575e-03
-8.108580950647592545e-04
-1.473844866268336773e-03
-5.083233118057250977e-04
-1.160172279924154282e-03
-2.552130259573459625e-03
-1.732754171825945377e-03
-2.130265580490231514e-03
-4.327088245190680027e-04
-1.926483819261193275e-04
-3.114278661087155342e-04
-1.491514616645872593e-03
-8.002354297786951065e-05
1.279798685573041439e-03
1.823745667934417725e-03
1.575471251271665096e-03
2.194316359236836433e-03
5.465572467073798180e-04
-8.150659268721938133e-04
-1.246854662895202637e-03
-2.376139163970947266e-03
-1.707119517959654331e-03
-2.320711966603994370e-03
-2.934771589934825897e-03
-2.580894390121102333e-03
-2.404795261099934578e-03
-2.653955249115824699e-03
-2.479878952726721764e-03
-2.177787711843848228e-03
-2.230668207630515099e-03
1.288823550567030907e-04
3.149652620777487755e-04
9.195593884214758873e-05
-3.501499304547905922e-03
1.681220019236207008e-04
1.463530701585114002e-03
1.981003675609827042e-03
-1.860027841757982969e-04
-2.208596328273415565e-03
-1.056468579918146133e-03
-8.357430342584848404e-04
2.698553726077079773e-05
-1.396161969751119614e-03
-2.002056688070297241e-03
-3.177164122462272644e-03
-1.481816056184470654e-03
-1.015461282804608345e-03
-3.403878305107355118e-03
-1.231505884788930416e-03
9.471168741583824158e-04
1.370857469737529755e-03
2.942087594419717789e-03
2.169357147067785263e-03
-1.360444002784788609e-03
1.338646281510591507e-03
6.012277444824576378e-04
1.323350006714463234e-04
7.181987166404724121e-04
1.399234053678810596e-03
-1.051121274940669537e-03
7.553256582468748093e-04
-4.508233978413045406e-04
3.950335085391998291e-04
-4.937723861075937748e-04
7.971541490405797958e-04
1.039158087223768234e-05
1.201699255034327507e-03
5.962837021797895432e-04
-1.543828053399920464e-03
-1.288091996684670448e-03
-5.791204748675227165e-04
4.844466457143425941e-04
3.323560813441872597e-04
-1.738786697387695312e-03
-1.373684033751487732e-03
-4.038287326693534851e-03
-8.780353236943483353e-04
2.142413519322872162e-03
-6.158784963190555573e-04
1.176091842353343964e-03
4.271024372428655624e-04
6.047002971172332764e-04
-1.649650279432535172e-03
2.106842352077364922e-03
2.631022362038493156e-03
4.248359473422169685e-04
5.512464558705687523e-04
1.199395279400050640e-03
1.157359685748815536e-03
3.765095025300979614e-04
-1.842405763454735279e-03
-2.977862488478422165e-03
-1.390898250974714756e-04
7.908858242444694042e-04
2.795827342197299004e-03
1.197511446662247181e-03
-1.099395798519253731e-03
-3.948044031858444214e-03
-1.559511292725801468e-03
-2.459140378050506115e-04
1.322482567047700286e-04
4.031459335237741470e-03
-5.631570238620042801e-04
4.950698930770158768e-04
9.320167591795325279e-04
-2.160360570996999741e-03
-2.710183616727590561e-05
-2.658911980688571930e-04
-7.529073627665638924e-04
-9.547057561576366425e-05
-2.637421712279319763e-04
1.668792450800538063e-03
2.213217318058013916e-03
3.116043517366051674e-03
4.869777476415038109e-04
-2.734794397838413715e-04
-9.374482324346899986e-04
-1.163667300716042519e-03
-9.017837001010775566e-04
-1.123291440308094025e-03
-9.703583782538771629e-04
-2.199730835855007172e-03
-1.278649549931287766e-03
-8.277037413790822029e-04
-4.465219681151211262e-04
-6.334570352919399738e-04
1.730757212499156594e-04
-3.264421829953789711e-04
3.076758002862334251e-04
1.953045022673904896e-03
1.316677895374596119e-03
2.276156330481171608e-03
1.773818396031856537e-03
1.978474436327815056e-03
1.613232772797346115e-03
4.307948111090809107e-04
6.266642594709992409e-04
-1.346519566141068935e-03
5.889462772756814957e-04
-5.582110024988651276e-04
-1.939651439897716045e-03
-2.358577679842710495e-03
-4.958224017173051834e-04
-3.138005267828702927e-03
-1.576685230247676373e-03
-1.898335409350693226e-03
1.225228188559412956e-03
1.321232877671718597e-03
2.279051812365651131e-03
1.646042102947831154e-03
1.317798392847180367e-03
3.736572572961449623e-03
2.395554445683956146e-03
1.474431017413735390e-03
1.434658188372850418e-03
8.651225361973047256e-04
2.658591838553547859e-04
-1.504722400568425655e-03
-6.479979492723941803e-04
-9.181544883176684380e-04
-9.704752592369914055e-04
-2.623517531901597977e-03
-2.444945741444826126e-03
-3.450265619903802872e-03
-2.164828358218073845e-03
4.036058671772480011e-04
-1.319087343290448189e-03
-7.701163413003087044e-04
-5.621259333565831184e-04
1.126292860135436058e-03
7.806919747963547707e-04
8.440507808700203896e-04
2.338397083804011345e-03
4.775794222950935364e-04
-8.040531538426876068e-04
1.635942142456769943e-03
9.853376541286706924e-04
6.050360389053821564e-04
7.630886393599212170e-04
-6.374728400260210037e-05
-6.784386350773274899e-04
-8.762441575527191162e-04
-1.851657289080321789e-04
3.585242666304111481e-04
-4.863507929258048534e-04
-6.732051260769367218e-04
2.882463391870260239e-03
2.647733781486749649e-03
2.755297813564538956e-03
4.603022709488868713e-03
3.948319703340530396e-03
1.633265754207968712e-03
5.101875867694616318e-04
1.972953556105494499e-03
-1.777013065293431282e-03
7.370567182078957558e-04
-1.135639147832989693e-03
-1.758211757987737656e-03
-2.368485729675740004e-04
-1.132503617554903030e-03
-2.930772025138139725e-03
-3.746930276975035667e-03
-2.836745698004961014e-03
-1.970035256817936897e-03
-1.017904607579112053e-03
9.490217780694365501e-04
-2.652573748491704464e-04
-4.241625429131090641e-04
1.232215319760143757e-03
1.480094273574650288e-03
8.124703890644013882e-04
2.043020445853471756e-03
2.668163506314158440e-03
2.406982821412384510e-04
1.534939627163112164e-03
4.794030450284481049e-03
3.033544402569532394e-03
3.494675911497324705e-04
-4.995969356968998909e-05
2.312273951247334480e-03
2.108729444444179535e-03
1.080624759197235107e-03
4.003898240625858307e-03
-9.148959652520716190e-04
1.352107618004083633e-03
-3.548950189724564552e-05
4.449713043868541718e-03
-4.821615293622016907e-04
2.914955257438123226e-04
-2.672896021977066994e-03
3.611355554312467575e-03
1.596947317011654377e-03
3.312704386189579964e-03
1.737413927912712097e-03
-1.384620321914553642e-03
-2.595835598185658455e-03
-2.949411282315850258e-03
2.069000154733657837e-03
3.045659977942705154e-04
-6.352358614094555378e-04
-2.261390211060643196e-03
-2.400065539404749870e-03
-1.495831063948571682e-03
2.882998669520020485e-03
1.906753750517964363e-03
1.745332381688058376e-03
7.511555450037121773e-04
3.490492468699812889e-03
4.323312081396579742e-03
8.034420199692249298e-03
6.001590285450220108e-03
7.513737305998802185e-03
2.173750428482890129e-03
1.821570098400115967e-03
4.202593583613634109e-03
4.065397195518016815e-03
1.210342044942080975e-03
1.094352686777710915e-03
-4.125165869481861591e-04
-6.038987194187939167e-04
-2.554696984589099884e-03
-1.134046935476362705e-03
-3.238148987293243408e-03
-1.979549415409564972e-03
-1.839687000028789043e-03
-1.099693123251199722e-03
5.367797566577792168e-04
1.553673529997467995e-03
9.866054169833660126e-04
9.013123053591698408e-05
-1.035765744745731354e-04
-1.801054168026894331e-04
2.111571666318923235e-05
2.706077648326754570e-04
-7.382528856396675110e-04
-1.616968802409246564e-04
-8.961345884017646313e-04
-2.163819153793156147e-04
6.133500719442963600e-04
-9.212556760758161545e-04
2.339133061468601227e-06
-5.415814812295138836e-04
-6.089616799727082253e-04
-5.938211688771843910e-05
-4.106623528059571981e-04
1.631163875572383404e-03
-1.575597270857542753e-04
1.464770059101283550e-03
1.584259443916380405e-04
3.426074399612843990e-04
-1.278169220313429832e-03
-1.572069595567882061e-03
3.048589569516479969e-04
4.242311697453260422e-04
-8.042884292080998421e-04
-1.811982947401702404e-04
1.875130692496895790e-06
8.706759545020759106e-04
5.147928022779524326e-04
1.125820213928818703e-03
1.102352165617048740e-03
8.562195580452680588e-04
8.030442986637353897e-04
1.523844548501074314e-04
8.811267325654625893e-04
1.761718420311808586e-03
-4.610983305610716343e-04
-1.726246671751141548e-03
-1.269232016056776047e-03
-2.663242863491177559e-03
-2.981534227728843689e-03
-2.878101076930761337e-03
-9.921500459313392639e-04
-5.366400582715868950e-04
-2.984341233968734741e-03
-2.148496918380260468e-03
-8.593238890171051025e-04
1.591789303347468376e-03
-5.490065086632966995e-05
8.893378544598817825e-04
5.831019952893257141e-04
2.506019081920385361e-04
1.815994386561214924e-03
-5.404924042522907257e-03
-2.251544035971164703e-03
-4.532483872026205063e-03
-5.047968123108148575e-03
-3.148948075249791145e-03
-2.667636610567569733e-03
-5.686473101377487183e-03
-4.293516278266906738e-03
-3.336542285978794098e-03
-3.728984855115413666e-03
1.182634005090221763e-04
-2.972091780975461006e-03
-2.940912265330553055e-03
-3.561589168384671211e-03
6.951541290618479252e-04
1.626908197067677975e-04
-4.816363565623760223e-03
1.271371729671955109e-05
-3.319764509797096252e-03
-4.885811824351549149e-03
-4.110852256417274475e-03
-4.122135695070028305e-03
-3.247915068641304970e-03
-1.931923208758234978e-03
2.778172027319669724e-03
-9.574568830430507660e-04
4.407464060932397842e-03
1.677779597230255604e-03
3.725501941516995430e-03
2.647412475198507309e-03
4.246560856699943542e-03
3.063509939238429070e-04
2.011940232478082180e-04
-3.730528755113482475e-03
-3.888223320245742798e-03
-3.437343053519725800e-03
-5.213655065745115280e-03
-1.856426708400249481e-03
-6.219336297363042831e-03
-4.398792516440153122e-03
-2.364425221458077431e-03
-2.854766324162483215e-03
-2.038144972175359726e-03
-1.222070888616144657e-03
-2.887990558519959450e-04
8.170929504558444023e-05
-9.019731078296899796e-05
-1.584088895469903946e-03
-1.769991591572761536e-03
3.997336316388100386e-04
-1.340830232948064804e-03
-7.365747587755322456e-04
-2.290800213813781738e-03
-1.814302057027816772e-03
8.567992335883900523e-05
1.326732803136110306e-03
-8.859800873324275017e-04
-7.909168489277362823e-04
3.146302769891917706e-04
1.247783424332737923e-03
4.811405087821185589e-04
-1.387742464430630207e-03
-2.124273218214511871e-03
-1.837748335674405098e-03
1.797908684238791466e-03
-1.909915474243462086e-03
-2.830740530043840408e-03
-2.916231751441955566e-03
-3.729980904608964920e-03
-5.972196348011493683e-03
9.147955570369958878e-04
-1.390527817420661449e-03
-8.691783295944333076e-04
-2.463231561705470085e-03
-1.331106177531182766e-03
-3.179111517965793610e-03
-3.164614900015294552e-04
-1.673883525654673576e-04
-4.983753024134784937e-05
-2.377665659878402948e-04
1.168634044006466866e-03
1.120202941820025444e-03
5.566989071667194366e-03
3.789241192862391472e-03
3.522406332194805145e-03
3.794285468757152557e-03
3.142715664580464363e-03
2.290559699758887291e-03
5.382552626542747021e-04
-7.673313375562429428e-04
-8.166488842107355595e-04
-8.930271724238991737e-04
-2.050689188763499260e-03
-3.282760502770543098e-03
-2.053802832961082458e-03
3.753896802663803101e-03
-1.002557401079684496e-04
6.657370249740779400e-04
3.963839728385210037e-03
3.042912343516945839e-03
4.253797233104705811e-04
1.045871991664171219e-03
5.321934004314243793e-04
2.133926842361688614e-03
1.278171548619866371e-03
-1.344999764114618301e-03
-1.398414256982505322e-03
-3.547054016962647438e-03
-3.358289599418640137e-03
-1.802237355150282383e-03
-7.272045477293431759e-04
-1.388646312989294529e-03
-1.105496077798306942e-03
1.671432750299572945e-03
1.475841971114277840e-03
2.638237783685326576e-04
-3.236450138501822948e-04
5.654338165186345577e-04
1.295458059757947922e-03
5.698497407138347626e-03
-2.083440311253070831e-03
-9.715835331007838249e-04
-5.875529022887349129e-04
2.878509461879730225e-03
-8.565035532228648663e-04
9.336002985946834087e-04
-2.564568538218736649e-03
-1.051897881552577019e-03
2.910166513174772263e-04
1.237263437360525131e-03
1.159667503088712692e-03
-2.390382112935185432e-03
-3.354001790285110474e-03
-1.197359291836619377e-03
2.574232639744877815e-03
2.365945838391780853e-03
2.693419111892580986e-03
1.721475506201386452e-03
1.212307019159197807e-03
2.039639512076973915e-03
1.901630312204360962e-03
6.369058392010629177e-04
3.498755686450749636e-04
-1.932804007083177567e-03
1.539906836114823818e-03
-1.440352876670658588e-03
1.916867680847644806e-03
-2.093917224556207657e-03
-7.620699470862746239e-04
-8.592281374149024487e-04
3.010457148775458336e-03
1.036241534166038036e-03
4.128366417717188597e-04
-2.720577642321586609e-03
2.396112249698489904e-04
4.083223640918731689e-03
8.585574687458574772e-05
3.856785828247666359e-03
-4.117517964914441109e-04
-1.769959344528615475e-04
-1.607255777344107628e-03
-4.480537027120590210e-04
-9.778423700481653214e-04
-2.931247581727802753e-04
-5.129586439579725266e-03
-3.836475079879164696e-03
1.762449508532881737e-03
3.283816389739513397e-03
2.008466050028800964e-03
4.299791064113378525e-03
3.413663478568196297e-03
5.891860928386449814e-03
6.050005089491605759e-03
3.350113285705447197e-03
1.712284632958471775e-03
2.630912233144044876e-03
3.403577953577041626e-03
3.834678791463375092e-03
-8.899527601897716522e-04
-1.787539571523666382e-03
-3.270667977631092072e-03
-2.727008890360593796e-03
-2.623768523335456848e-03
-1.097973203286528587e-03
-5.006759311072528362e-04
-3.260788973420858383e-03
-1.167005393654108047e-05
-8.089709444902837276e-04
-1.068283803761005402e-03
5.792059237137436867e-04
5.586455808952450752e-04
2.666127169504761696e-03
2.614359837025403976e-03
2.968940418213605881e-03
-3.021278535015881062e-04
3.332023625262081623e-04
-1.245763851329684258e-04
1.592765212990343571e-03
2.809600904583930969e-03
2.006990835070610046e-03
-9.802661370486021042e-04
-1.312565756961703300e-03
9.992957348003983498e-05
-1.457784324884414673e-03
-1.114082406274974346e-04
-2.182515017921105027e-04
-2.179054776206612587e-03
-1.746444148011505604e-03
6.050273077562451363e-04
4.050336428917944431e-04
2.398582641035318375e-03
1.246004365384578705e-03
2.218750771135091782e-03
2.207563491538167000e-03
7.845822838135063648e-04
1.314412103965878487e-03
1.225986168719828129e-03
2.235995838418602943e-03
1.669346354901790619e-03
2.806960372254252434e-03
1.219040132127702236e-03
1.442994107492268085e-04
1.678804401308298111e-03
8.658294682390987873e-04
1.017814385704696178e-03
-4.230229533277451992e-04
-3.974184510298073292e-04
1.440683612599968910e-03
2.226182259619235992e-03
1.280326832784339786e-04
1.155378413386642933e-03
3.467282222118228674e-04
7.817987352609634399e-06
-5.657468573190271854e-04
1.645880285650491714e-03
-6.926018977537751198e-05
8.579576388001441956e-04
1.716426922939717770e-03
4.439587355591356754e-04
2.453433582559227943e-03
8.650046656839549541e-04
1.307056285440921783e-03
2.701516263186931610e-03
4.677261458709836006e-04
1.863872748799622059e-03
7.184786372818052769e-04
3.703024121932685375e-04
1.768970279954373837e-03
2.828073920682072639e-03
3.592860186472535133e-03
2.752876374870538712e-03
1.750204828567802906e-03
1.139302388764917850e-03
-1.107380958274006844e-04
-4.879094776697456837e-04
-4.540254361927509308e-03
-4.341032356023788452e-03
-4.180441144853830338e-03
-1.185926725156605244e-03
-2.119462937116622925e-03
-1.418537343852221966e-03
-6.921670865267515182e-04
7.375087589025497437e-04
1.262515201233327389e-03
1.544859027490019798e-03
2.436931943520903587e-03
3.135900711640715599e-03
4.035564139485359192e-03
3.911521285772323608e-03
2.338454592972993851e-03
3.429283387959003448e-03
6.068558432161808014e-04
-4.482002696022391319e-04
-1.925252843648195267e-03
-1.314795110374689102e-03
-2.944353036582469940e-03
-3.278847085312008858e-03
-3.009441308677196503e-03
-1.741068204864859581e-03
-2.484331838786602020e-03
-2.304124936927109957e-04
-9.345987346023321152e-04
-8.158094133250415325e-04
4.058176418766379356e-04
7.706023170612752438e-04
1.458214013837277889e-03
1.934161642566323280e-03
3.614958841353654861e-03
2.892623888328671455e-04
3.836278337985277176e-04
1.528723863884806633e-03
2.214333508163690567e-03
1.988002564758062363e-03
1.708975178189575672e-03
3.751840675249695778e-03
5.037578754127025604e-03
2.280876040458679199e-03
5.925287492573261261e-03
4.289522301405668259e-03
5.518234800547361374e-03
4.870620556175708771e-03
6.558630149811506271e-03
2.841225825250148773e-03
4.684909712523221970e-03
-8.651210373500362039e-05
-4.122015088796615601e-03
-2.174118068069219589e-03
-5.192435346543788910e-03
-3.156841732561588287e-03
-3.991334699094295502e-03
-4.708388820290565491e-03
-4.306383430957794189e-03
-7.486450485885143280e-04
-5.514574702829122543e-03
-4.258534871041774750e-03
-1.726612448692321777e-03
-4.828965466003865004e-04
-2.432080451399087906e-03
1.215299242176115513e-03
8.785078534856438637e-05
4.756014968734234571e-04
-4.231184138916432858e-04
4.144206643104553223e-03
7.095882901921868324e-04
4.178974195383489132e-04
-9.754085913300514221e-04
1.646047690883278847e-03
-3.069164231419563293e-04
-4.982701037079095840e-03
-4.639145918190479279e-03
-4.629828967154026031e-03
-5.195129197090864182e-03
-3.238994395360350609e-03
-5.388225894421339035e-03
-4.428534768521785736e-03
-5.487412214279174805e-03
-3.801711369305849075e-03
-2.515902277082204819e-03
-4.162578377872705460e-03
-1.207224908284842968e-03
-1.924465643242001534e-03
-7.481467910110950470e-04
-9.515277924947440624e-04
-6.505020428448915482e-05
-1.341754104942083359e-04
-8.966251625679433346e-04
-2.513114362955093384e-03
3.947871737182140350e-04
8.901190012693405151e-04
-7.497980259358882904e-04
-1.613609492778778076e-03
9.588082320988178253e-04
-7.252680370584130287e-04
1.504503656178712845e-03
2.745841629803180695e-04
4.787381913047283888e-04
-1.123510533943772316e-03
2.339507627766579390e-04
-5.302667617797851562e-03
-8.375385077670216560e-04
-3.280074102804064751e-03
-1.214833464473485947e-03
-2.595833269879221916e-03
-1.436893013305962086e-03
-5.029516760259866714e-03
-3.252137452363967896e-03
-4.362865351140499115e-03
-3.785001346841454506e-03
-4.397457931190729141e-03
-6.070620147511363029e-04
-4.846183874178677797e-04
1.571885775774717331e-03
7.699775160290300846e-04
2.860995009541511536e-04
-6.526422221213579178e-04
1.008240855298936367e-03
5.151141667738556862e-04
-5.369165446609258652e-04
9.636931645218282938e-05
3.012209199368953705e-03
-4.506736877374351025e-04
-2.032354939728975296e-03
-3.021647222340106964e-03
-1.900236587971448898e-03
-3.254978684708476067e-03
-2.483429852873086929e-06
-5.377216264605522156e-03
-5.037743598222732544e-03
-4.511606413871049881e-03
-2.287603681907057762e-03
-3.150710603222250938e-03
1.902537886053323746e-03
-1.674696803092956543e-03
1.450219191610813141e-03
4.158815369009971619e-03
5.429721437394618988e-03
3.018493764102458954e-03
3.478035330772399902e-03
3.560582874342799187e-03
2.053402597084641457e-03
1.807433553040027618e-03
-1.969583565369248390e-03
-3.437994746491312981e-03
-5.687720142304897308e-03
-7.041799835860729218e-03
-4.075549077242612839e-03
-3.486834000796079636e-03
-2.174182562157511711e-03
-3.681341884657740593e-03
4.168529994785785675e-03
-8.073407225310802460e-04
2.486715326085686684e-03
1.413144171237945557e-03
3.504831111058592796e-03
4.856490530073642731e-03
6.843990180641412735e-03
3.320319810882210732e-03
4.381818696856498718e-03
7.308660075068473816e-03
2.529402030631899834e-03
1.963588409125804901e-03
5.181581946089863777e-05
2.534038503654301167e-04
-7.100551156327128410e-04
1.173393917270004749e-03
-3.817698452621698380e-03
-4.027265589684247971e-03
-5.695818457752466202e-03
-4.396964330226182938e-03
-4.430802073329687119e-03
3.770545881707221270e-04
-1.249469816684722900e-03
3.165886155329644680e-04
3.983587957918643951e-03
3.394705243408679962e-03
4.066145047545433044e-03
2.334970980882644653e-03
3.831015899777412415e-03
8.933172211982309818e-04
3.607480786740779877e-03
1.906181103549897671e-03
3.402006579563021660e-03
2.612995449453592300e-03
1.731197931803762913e-03
-7.606497383676469326e-04
-1.362910959869623184e-03
1.887556281872093678e-03
7.944809040054678917e-04
5.147651303559541702e-03
-2.981898724101483822e-04
2.876012818887829781e-03
3.007890423759818077e-03
6.073519121855497360e-03
3.465727204456925392e-03
1.989429816603660583e-03
2.250916091725230217e-03
7.658835966140031815e-04
3.765884088352322578e-03
1.624972210265696049e-03
1.038630376569926739e-03
8.170097135007381439e-04
6.749533349648118019e-04
-3.151819109916687012e-04
-1.344961347058415413e-04
8.390641305595636368e-04
5.545527674257755280e-04
3.406279720366001129e-04
3.638811176642775536e-04
3.103982890024781227e-04
1.030097017064690590e-03
-1.086259260773658752e-03
-1.315156579948961735e-03
-1.042791758663952351e-03
1.822846010327339172e-03
1.876115798950195312e-03
-1.016925671137869358e-05
-1.521128462627530098e-03
-9.464836912229657173e-04
-1.362338196486234665e-03
1.529006403870880604e-04
-7.469630800187587738e-04
3.410000936128199100e-04
-1.085933065041899681e-03
1.419652020558714867e-03
1.725264359265565872e-03
-1.566357444971799850e-03
-5.536605021916329861e-05
1.591524051036685705e-04
2.352165058255195618e-03
3.322351723909378052e-03
2.395734190940856934e-03
5.472275661304593086e-04
2.719793235883116722e-03
3.346802666783332825e-03
2.756404690444469452e-03
1.912969863042235374e-03
-2.055197954177856445e-03
-2.158272545784711838e-03
-1.072806306183338165e-03
1.329061691649258137e-03
-6.397782708518207073e-04
-3.943297779187560081e-04
4.288011405151337385e-04
1.300980569794774055e-03
1.277438248507678509e-03
2.140565076842904091e-03
2.104782033711671829e-03
1.966926211025565863e-04
5.020044278353452682e-03
2.156956354156136513e-03
6.750599713996052742e-04
-8.377741323783993721e-04
2.600341802462935448e-03
1.511663431301712990e-03
2.280432963743805885e-04
1.174840028397738934e-03
-1.003377139568328857e-03
-4.923315136693418026e-04
6.593884900212287903e-04
-9.012619848363101482e-04
-5.668733501806855202e-04
-1.903987140394747257e-04
2.482713898643851280e-05
-2.897356171160936356e-03
-1.857387484051287174e-03
-1.252712798304855824e-03
-2.964503830298781395e-03
-1.081870403140783310e-03
-1.437983941286802292e-03
-2.258507302030920982e-03
-3.093277802690863609e-03
-1.191486371681094170e-03
-1.076156389899551868e-03
1.472446019761264324e-04
8.323079673573374748e-04
4.251177597325295210e-05
-1.596713904291391373e-03
1.887976657599210739e-03
1.774423639290034771e-03
-9.451395599171519279e-04
-3.005531849339604378e-03
-2.913015428930521011e-03
-3.998821484856307507e-04
-8.553648367524147034e-04
-1.339740585535764694e-03
1.255024457350373268e-03
1.744740176945924759e-03
9.599566692486405373e-04
-4.525076656136661768e-04
-1.025364850647747517e-03
-4.410171532072126865e-04
-1.006970764137804508e-03
2.043586573563516140e-05
4.552129030344076455e-05
1.420523971319198608e-03
8.106381865218281746e-04
-7.752254168735817075e-05
-9.761800756677985191e-04
-1.410842756740748882e-03
1.177052385173738003e-03
1.992885023355484009e-03
8.635984268039464951e-04
-1.001022756099700928e-03
7.117951754480600357e-04
7.967872079461812973e-05
2.345441142097115517e-03
1.493581454269587994e-03
1.611552434042096138e-03
-1.831350091379135847e-04
-5.315889575285837054e-05
-5.237764562480151653e-04
-8.240835741162300110e-04
7.713530067121610045e-05
1.290714717470109463e-03
2.737692324444651604e-03
2.194420230807736516e-04
7.686484605073928833e-05
-7.298842538148164749e-04
2.335767727345228195e-03
1.594633096829056740e-03
1.203909050673246384e-03
1.571536995470523834e-03
2.478829701431095600e-04
1.635382417589426041e-03
-1.658359542489051819e-05
1.091864076443016529e-03
-1.220979960635304451e-03
-3.099636523984372616e-05
-1.325125922448933125e-04
-9.224953828379511833e-04
-5.562597070820629597e-04
-7.260002894327044487e-04
-9.888347703963518143e-04
-1.822089543566107750e-04
1.231604721397161484e-03
-1.602421107236295938e-04
-9.508077055215835571e-04
-1.511225360445678234e-03
6.438448908738791943e-04
3.629142884165048599e-05
3.574232105165719986e-04
-2.302581677213311195e-03
1.206746557727456093e-03
-1.475885626859962940e-03
4.187362210359424353e-04
-2.389883622527122498e-03
-1.871337648481130600e-03
-1.456929836422204971e-03
-1.254688482731580734e-03
-3.828376997262239456e-03
-1.398337772116065025e-03
-1.882882323116064072e-03
-2.669327426701784134e-03
-2.269094809889793396e-03
-1.171888899989426136e-03
-2.751807915046811104e-03
7.751804077997803688e-04
2.966266125440597534e-03
-1.202138140797615051e-03
3.793996293097734451e-04
6.462769815698266029e-04
1.949493307620286942e-03
-3.126903029624372721e-04
2.699192380532622337e-03
5.410485900938510895e-04
1.590124331414699554e-03
-1.763984910212457180e-04
5.108366021886467934e-04
3.150384873151779175e-04
1.310848863795399666e-03
-1.041750307194888592e-03
8.382406667806208134e-04
-3.229223657399415970e-04
4.361594328656792641e-04
-2.615024859551340342e-04
-2.425905084237456322e-03
-7.824711501598358154e-04
-2.260572277009487152e-03
-1.626517158001661301e-03
-1.211521230288781226e-04
-1.311467727646231651e-03
-2.419429365545511246e-04
-6.741900579072535038e-04
-3.256459021940827370e-04
1.706268085399642587e-05
2.286627655848860741e-03
1.458358485251665115e-03
5.324255325831472874e-04
1.547755440697073936e-03
1.159042469225823879e-03
1.302420394495129585e-03
-1.297661801800131798e-04
-4.102158709429204464e-04
7.709284545853734016e-06
6.593806901946663857e-04
1.119898050092160702e-03
3.321419935673475266e-04
1.821381738409399986e-04
2.657415461726486683e-05
7.986252312548458576e-04
1.251726353075355291e-04
6.431978545151650906e-04
-2.340489882044494152e-04
-6.376325036399066448e-04
-1.238349475897848606e-03
4.823385097552090883e-06
-4.082738596480339766e-04
-1.541584962978959084e-03
-2.536700339987874031e-04
-4.842502530664205551e-04
2.063915890175849199e-04
5.033922498114407063e-04
-8.320657652802765369e-04
-4.739989817608147860e-04
-2.946389140561223030e-04
3.797919198404997587e-04
4.199552931822836399e-04
-3.696474886965006590e-04
-9.680712828412652016e-04
-3.489690134301781654e-04
-1.597994356416165829e-03
-1.593107706867158413e-03
-1.478665042668581009e-03
-8.962114807218313217e-04
-1.521315192803740501e-03
-7.448384421877563000e-04
3.598533512558788061e-04
2.256433363072574139e-04
6.959192687645554543e-04
2.592939126770943403e-04
1.499244011938571930e-03
1.116607571020722389e-03
1.202568178996443748e-03
1.113142934627830982e-03
3.042636089958250523e-04
1.358397770673036575e-03
-9.988636011257767677e-04
-1.224486739374697208e-03
-8.964028093032538891e-04
-1.786150853149592876e-03
-2.179305534809827805e-03
-1.571562839671969414e-03
-6.418481934815645218e-04
-1.363489427603781223e-03
3.435037797316908836e-04
2.029444091022014618e-03
8.797049522399902344e-04
1.624699565581977367e-03
2.597082348074764013e-04
2.295314101502299309e-03
2.138993237167596817e-03
1.690830686129629612e-03
8.269042591564357281e-04
2.386300824582576752e-03
1.793392468243837357e-03
3.463110188022255898e-04
-1.494648167863488197e-04
3.022574819624423981e-04
-4.973374889232218266e-04
-4.755657573696225882e-04
-5.195167614147067070e-04
-1.293907989747822285e-03
-1.255542971193790436e-03
-8.607574854977428913e-04
-1.005019061267375946e-03
-2.494771615602076054e-04
-1.496566925197839737e-03
-7.780197774991393089e-04
8.019675733521580696e-04
2.551154466345906258e-04
6.301602115854620934e-04
-1.647186873015016317e-04
4.325160698499530554e-04
1.581638207426294684e-04
1.052503706887364388e-03
9.452834492549300194e-04
-2.210517995990812778e-04
8.271124679595232010e-04
6.478948052972555161e-04
4.556250059977173805e-04
2.870701428037136793e-04
1.648673787713050842e-03
-7.397443550871685147e-05
1.170239702332764864e-04
-4.299640713725239038e-04
9.886906482279300690e-04
7.395344437099993229e-05
3.042159660253673792e-04
-1.217869139509275556e-04
1.722464803606271744e-04
1.593642227817326784e-04
-2.274223661515861750e-04
-1.249204738996922970e-03
6.883999449200928211e-04
-4.580851236823946238e-04
2.240029134554788470e-04
1.196296288981102407e-04
-3.867695922963321209e-04
-5.426259594969451427e-04
-5.030015017837285995e-06
-2.223567862529307604e-04
-6.320773391053080559e-04
7.281227153725922108e-04
1.408906537108123302e-04
2.150223153876140714e-04
8.760830387473106384e-04
7.299114076886326075e-05
-7.117495988495647907e-04
-2.564276102930307388e-03
-1.346410717815160751e-03
-4.718932032119482756e-04
-1.001507625915110111e-03
7.263230509124696255e-05
-1.399029977619647980e-03
2.564236288890242577e-03
4.037619801238179207e-04
1.311768544837832451e-03
-5.162023939192295074e-03
-3.032091190107166767e-04
-1.882671378552913666e-03
-1.588902436196804047e-03
-3.148539690300822258e-06
-3.169151605106890202e-04
2.652407856658101082e-04
-2.674745046533644199e-04
-1.972745871171355247e-03
-2.593262586742639542e-03
2.028153045102953911e-03
1.543465652503073215e-03
9.259191574528813362e-04
-1.828660024330019951e-04
-5.094968364574015141e-04
7.620097603648900986e-04
5.947594181634485722e-04
-7.475947495549917221e-05
-9.561649058014154434e-04
-1.178451784653589129e-04
-1.474572578445076942e-03
-4.730012442450970411e-04
-2.563461195677518845e-03
-1.089402241632342339e-03
-9.095980203710496426e-06
-7.881170604377985001e-04
-7.971142185851931572e-04
-1.929940888658165932e-03
-2.391586778685450554e-03
1.410932163707911968e-03
-3.395953535800799727e-05
1.706790179014205933e-03
-9.796776575967669487e-04
5.985170137137174606e-04
-5.064939614385366440e-05
3.937135043088346720e-04
-3.894846304319798946e-04
-5.129085620865225792e-04
1.162468222901225090e-03
7.745904149487614632e-04
-3.520794853102415800e-04
-7.847609231248497963e-04
-1.147099072113633156e-03
-9.448261698707938194e-05
6.598993786610662937e-05
5.503423744812607765e-04
-1.103544374927878380e-03
-4.695481038652360439e-04
1.737138081807643175e-04
3.338909009471535683e-04
-2.220124239102005959e-03
-6.442775484174489975e-04
-1.210061600431799889e-03
1.093619503080844879e-03
3.583251964300870895e-05
-9.058974101208150387e-04
-1.058977446518838406e-03
-5.700019537471234798e-04
3.391351783648133278e-04
-3.833017544820904732e-04
2.135733229806646705e-04
-2.259747998323291540e-04
-7.741603767499327660e-04
-1.709908101474866271e-04
-2.258198801428079605e-03
6.102328188717365265e-05
-3.571256529539823532e-04
-4.808978701476007700e-05
-1.313307322561740875e-03
4.758635186590254307e-04
-8.092214120551943779e-04
-4.926694673486053944e-04
-3.589288098737597466e-04
-1.741334795951843262e-03
1.085691386833786964e-03
3.756247751880437136e-04
-9.266535635106265545e-04
-1.375164138153195381e-04
-4.777782887686043978e-04
-1.248215674422681332e-03
1.244049170054495335e-03
-6.037368439137935638e-04
-3.585009253583848476e-04
1.974946819245815277e-03
1.432521035894751549e-03
-1.258568721823394299e-03
7.340972078964114189e-04
-6.401130813173949718e-04
-6.633405573666095734e-04
-9.897237177938222885e-04
-7.519001374021172523e-04
-1.996243838220834732e-03
3.644081298261880875e-04
-1.729842741042375565e-03
-1.412764890119433403e-03
-3.081514732912182808e-04
-2.638174686580896378e-03
-9.975585853680968285e-04
-1.206903369165956974e-03
-5.282746860757470131e-04
-1.083237235434353352e-03
2.657187869772315025e-04
-2.448586747050285339e-03
-1.873613800853490829e-03
-8.004504488781094551e-04
-3.693901817314326763e-04
-1.127623487263917923e-03
-2.413075417280197144e-03
-1.101713394746184349e-03
-2.194737317040562630e-04
9.879961144179105759e-04
-6.862750742584466934e-04
-7.104736869223415852e-05
-1.632174709811806679e-03
-5.464978748932480812e-04
-4.140893579460680485e-04
-8.017251384444534779e-04
-1.462067011743783951e-03
-1.086125266738235950e-03
6.119534373283386230e-04
1.040886389091610909e-03
6.775415386073291302e-04
-7.812963449396193027e-04
-6.805297452956438065e-04
-1.938571687787771225e-03
-3.893591056112200022e-04
-7.156646461226046085e-04
-9.159491746686398983e-04
-1.419467851519584656e-03
-8.303003851324319839e-04
1.723252062220126390e-04
-1.891838153824210167e-03
-5.889378953725099564e-04
-9.837811812758445740e-04
-1.612090039998292923e-03
-1.330865081399679184e-03
-7.517313351854681969e-04
-2.701578778214752674e-04
-1.795420248527079821e-04
1.247078762389719486e-05
-4.243946750648319721e-05
1.016775844618678093e-03
3.393390943529084325e-05
-9.917299030348658562e-04
-3.029571962542831898e-04
-1.857307157479226589e-03
-9.610280976630747318e-04
-1.137898943852633238e-04
6.096088327467441559e-05
-1.886790618300437927e-03
-9.014157112687826157e-04
6.217402406036853790e-04
-5.240235477685928345e-04
-9.748210432007908821e-04
8.677830919623374939e-05
-7.950811414048075676e-04
-1.049711485393345356e-03
1.326228666584938765e-04
3.215390315745025873e-04
9.595835581421852112e-05
-1.167673617601394653e-03
-4.604888963513076305e-04
4.987522843293845654e-04
-1.408081268891692162e-03
-1.262817298993468285e-03
-1.723266555927693844e-03
-1.810286194086074829e-03
-9.089512750506401062e-04
-1.451536896638572216e-03
-1.091882237233221531e-03
-9.935376001521945000e-04
-1.204174943268299103e-03
4.056899924762547016e-04
-1.121330074965953827e-03
-1.565136597491800785e-03
-2.151791471987962723e-03
-1.419158070348203182e-03
-1.161672873422503471e-03
-5.822731181979179382e-04
-2.409483538940548897e-03
-2.026622183620929718e-03
-1.476933015510439873e-03
-1.066695898771286011e-03
-1.876991475000977516e-03
3.646060358732938766e-04
-2.528366632759571075e-03
-1.038372516632080078e-03
-5.290748667903244495e-04
9.815007797442376614e-05
-2.709188265725970268e-04
3.434542566537857056e-03
3.281804383732378483e-04
3.463064786046743393e-03
3.701694542542099953e-03
3.814644645899534225e-03
3.466827329248189926e-03
3.588518593460321426e-03
-1.698851934634149075e-03
1.788442896213382483e-04
3.691372112371027470e-04
-5.356968380510807037e-03
-6.311277858912944794e-03
-4.629291128367185593e-03
-9.877698495984077454e-03
-7.660374511033296585e-03
-7.327795028686523438e-03
-4.144291393458843231e-03
-6.124565377831459045e-03
6.391234928742051125e-04
-1.595031935721635818e-03
-1.355160929961130023e-04
-1.246687956154346466e-03
-2.867212169803678989e-04
3.274653106927871704e-03
7.793219294399023056e-03
1.610738225281238556e-03
8.156075142323970795e-03
9.589879773557186127e-03
1.067503169178962708e-02
7.807106245309114456e-03
1.082425471395254135e-02
6.141693331301212311e-03
5.519710015505552292e-03
4.119619261473417282e-03
4.149207845330238342e-03
2.108607441186904907e-03
-1.672678627073764801e-03
-4.240208305418491364e-03
-1.306575868511572480e-04
-2.082633320242166519e-03
5.529549671337008476e-04
-1.176903722807765007e-03
-1.607696874998509884e-03
-1.954324310645461082e-03
-4.089472058694809675e-04
-1.710349926725029945e-03
-5.040591582655906677e-03
8.138942066580057144e-04
-2.847260097041726112e-03
2.315262245247140527e-04
-9.479630971327424049e-04
2.912791445851325989e-03
-2.298264997079968452e-03
2.484075957909226418e-03
-2.967882202938199043e-03
2.973359776660799980e-03
2.927635097876191139e-03
3.702729474753141403e-03
6.358280312269926071e-03
4.342299420386552811e-03
5.944825243204832077e-03
4.500406794250011444e-03
8.156592957675457001e-03
4.772662185132503510e-03
5.385879892855882645e-03
2.829676959663629532e-03
3.747876267880201340e-03
3.081433475017547607e-03
1.096371794119477272e-03
1.156721380539238453e-03
5.569260683842003345e-04
1.628564903512597084e-03
1.628421596251428127e-03
1.687007374130189419e-03
3.859482239931821823e-04
2.176962327212095261e-03
1.055604778230190277e-03
1.026326208375394344e-03
2.003546571359038353e-03
2.186258556321263313e-03
1.110236276872456074e-03
2.760353498160839081e-03
2.749050501734018326e-03
8.882770780473947525e-04
5.598168354481458664e-04
7.538787322118878365e-04
7.466879324056208134e-04
1.395338680595159531e-03
-4.730672808364033699e-04
-9.895947296172380447e-04
-1.505405234638601542e-04
9.543542400933802128e-04
5.046472069807350636e-04
2.404395258054137230e-03
1.770477276295423508e-03
2.168253529816865921e-03
1.085005467757582664e-03
2.493687905371189117e-03
2.154571120627224445e-06
1.664762268774211407e-03
7.179537788033485413e-04
9.736191132105886936e-04
-3.679929068312048912e-04
-7.678553811274468899e-04
-1.900544390082359314e-03
-4.520208676694892347e-06
-1.958552515134215355e-03
-3.970024408772587776e-05
-2.256535226479172707e-03
-1.172282034531235695e-03
-1.678895438089966774e-03
7.801614701747894287e-04
9.867396438494324684e-04
-1.624860917218029499e-03
-6.925828056409955025e-04
-3.901264164596796036e-03
-1.794271636754274368e-03
-4.192271735519170761e-03
-1.924600685015320778e-03
-2.436460228636860847e-03
-2.624579705297946930e-03
-7.252641371451318264e-04
-6.990374531596899033e-04
-9.176699677482247353e-05
-1.658768625929951668e-03
-1.949764555320143700e-05
-1.267389510758221149e-03
-1.326422090642154217e-03
-1.732134842313826084e-03
-1.192172174341976643e-03
-5.226278211921453476e-03
-3.349749138578772545e-03
-3.946621436625719070e-03
-3.537155687808990479e-03
-6.623374763876199722e-03
-4.349234048277139664e-03
-2.576099708676338196e-03
-1.194682670757174492e-03
5.515885073691606522e-03
1.133630401454865932e-03
7.230024784803390503e-03
4.231504164636135101e-03
6.972418166697025299e-03
6.657486315816640854e-03
4.600930027663707733e-03
2.916587283834815025e-03
2.182085765525698662e-03
2.826287876814603806e-03
-1.667397591518238187e-04
3.177200414938852191e-05
-1.984481932595372200e-03
-1.953562459675595164e-04
-2.910997951403260231e-03
-1.663238625042140484e-03
-4.360158927738666534e-03
-5.440681707113981247e-04
-3.513457253575325012e-03
-5.125017196405678988e-05
-6.073776748962700367e-04
6.279881345108151436e-04
2.008473529713228345e-04
1.074466039426624775e-03
1.194226904772222042e-03
-1.599493989488109946e-04
6.453927606344223022e-03
4.199518822133541107e-03
5.139375571161508560e-03
3.480049781501293182e-03
5.536695243790745735e-05
3.899124218150973320e-03
7.702752482146024704e-04
3.061782103031873703e-03
-6.310536991804838181e-04
2.160079893656075001e-04
8.788665290921926498e-04
9.148179087787866592e-04
-3.484810586087405682e-04
1.585975871421396732e-03
4.308263596612960100e-04
-1.127343391999602318e-03
9.527200018055737019e-04
-1.577370101585984230e-03
7.867258391343057156e-04
9.919848525896668434e-04
-1.770498114638030529e-03
-1.838913885876536369e-03
-1.624174066819250584e-03
-1.014438457787036896e-03
-1.169862924143671989e-03
-2.163786906749010086e-03
4.259560257196426392e-03
2.679149154573678970e-03
1.084635616280138493e-03
2.444413490593433380e-03
-2.308931201696395874e-03
-1.116666244342923164e-04
-5.387610290199518204e-03
-3.824717830866575241e-03
-2.100381068885326385e-03
7.144955452531576157e-04
-1.535920193418860435e-03
-1.940574380569159985e-03
-1.411068253219127655e-03
-3.220911836251616478e-03
-5.671332590281963348e-03
-1.436848659068346024e-03
4.646853194572031498e-04
-4.810540005564689636e-03
-4.552615340799093246e-03
-1.838055206462740898e-03
-4.517369437962770462e-03
-7.386741926893591881e-04
-4.728575237095355988e-03
-3.143492154777050018e-03
-2.825892530381679535e-03
-1.951131969690322876e-03
-3.883506637066602707e-03
-1.999717205762863159e-03
-1.989829586818814278e-03
-7.221287116408348083e-03
-4.149768501520156860e-03
-1.947949174791574478e-03
-6.200958974659442902e-03
-6.800266448408365250e-03
-5.925421603024005890e-03
-9.332927875220775604e-03
-4.297070670872926712e-03
-4.759096540510654449e-03
-8.306422270834445953e-03
-7.280967198312282562e-03
-7.489544805139303207e-03
-7.514343131333589554e-03
-7.034641224890947342e-03
-9.756266139447689056e-03
-9.356508962810039520e-03
-5.413490347564220428e-03
-6.320941261947154999e-03
-9.681847877800464630e-03
-6.688287481665611267e-03
-1.026657689362764359e-02
-7.127161603420972824e-03
-7.227180059999227524e-03
-9.540579281747341156e-03
-1.245511788874864578e-02
-1.010344084352254868e-02
-7.623943500220775604e-03
-8.621155284345149994e-03
-1.081121712923049927e-02
-1.083721965551376343e-02
-1.091180741786956787e-02
-8.014635182917118073e-03
-1.053016632795333862e-02
-1.288631930947303772e-02
-9.874165058135986328e-03
-9.866440668702125549e-03
-9.663604199886322021e-03
-1.003116741776466370e-02
-9.621515870094299316e-03
-7.349841762334108353e-03
-9.702218696475028992e-03
-8.579210378229618073e-03
-5.127253476530313492e-03
-9.689011611044406891e-03
-1.462852582335472107e-02
-7.480253465473651886e-03
-1.218666229397058487e-02
-1.319439150393009186e-02
-1.380905788391828537e-02
-6.219573784619569778e-03
-2.019675262272357941e-02
-4.682304337620735168e-03
1.765194465406239033e-03
3.438894636929035187e-03
6.676778430119156837e-04
5.643780808895826340e-03
1.033794414252042770e-02
1.387232448905706406e-02
1.837586425244808197e-02
2.415205352008342743e-02
6.105031352490186691e-03
1.590965129435062408e-02
1.176990196108818054e-02
7.982145994901657104e-03
-3.554760012775659561e-03
-1.199390739202499390e-02
-5.403438583016395569e-03
-1.664576493203639984e-02
-3.006683662533760071e-02
-2.804462425410747528e-02
-3.841064497828483582e-02
-6.386888772249221802e-02
-5.790232121944427490e-02
-5.749912932515144348e-02
-6.711754947900772095e-02
-4.777306318283081055e-02
5.027519073337316513e-03
-1.331559661775827408e-02
-5.088496021926403046e-03
2.934832684695720673e-02
3.920904174447059631e-02
7.120685279369354248e-02
7.077134400606155396e-02
8.369723707437515259e-02
7.057321816682815552e-02
6.581863760948181152e-02
9.145092219114303589e-02
2.728627808392047882e-02
-7.011604495346546173e-03
-7.272008061408996582e-02
-8.201817423105239868e-02
-1.096717119216918945e-01
-1.502234190702438354e-01
-1.821750849485397339e-01
-2.460284382104873657e-01
-2.561716735363006592e-01
-2.357107698917388916e-01
-1.753261387348175049e-01
-1.173264160752296448e-01
-1.986071318387985229e-01
-4.388383403420448303e-02
1.502274125814437866e-01
7.050621509552001953e-02
2.693182826042175293e-01
2.215082347393035889e-01
3.364599049091339111e-01
3.141263723373413086e-01
4.262643158435821533e-01
2.720824778079986572e-01
2.809230089187622070e-01
2.234455794095993042e-01
1.751598715782165527e-01
2.352703176438808441e-02
-1.239121407270431519e-01
-2.451909780502319336e-01
-2.055609524250030518e-01
-1.131347045302391052e-01
-4.796971753239631653e-02
-9.734953939914703369e-02
-1.792057603597640991e-02
1.541160885244607925e-02
-1.332617923617362976e-02
1.565707032568752766e-03
2.600737288594245911e-02
1.876015402376651764e-02
2.817045338451862335e-02
4.993323981761932373e-02
3.598774597048759460e-02
1.709094271063804626e-02
3.369805589318275452e-02
3.511727228760719299e-02
2.186895906925201416e-02
1.335003785789012909e-02
2.354151196777820587e-02
1.371299289166927338e-02
7.313128560781478882e-03
-2.012770855799317360e-04
2.892693737521767616e-03
-2.312615106347948313e-04
-1.155832869699224830e-04
-3.621786367148160934e-03
-1.489061396569013596e-04
1.301722601056098938e-03
3.197494894266128540e-03
4.201185423880815506e-03
4.449541680514812469e-03
2.015687758103013039e-03
-8.743882644921541214e-04
-4.381233826279640198e-03
-4.791487299371510744e-05
-1.872975844889879227e-03
-6.146264262497425079e-03
-3.590658772736787796e-03
-3.955744672566652298e-03
-1.534802606329321861e-03
1.688078511506319046e-03
-1.277480972930788994e-03
1.179587328806519508e-03
-3.299641190096735954e-03
7.054721936583518982e-03
1.008682884275913239e-03
5.483757704496383667e-03
1.134943799115717411e-03
5.871460773050785065e-03
6.432484369724988937e-03
5.681554321199655533e-03
5.796771030873060226e-03
5.259845405817031860e-03
2.469691447913646698e-03
6.917783175595104694e-04
2.207346493378281593e-03
-8.937211241573095322e-04
-1.822154736146330833e-04
6.980955949984490871e-04
1.211617724038660526e-03
8.925250731408596039e-04
-1.582043943926692009e-03
2.143763937056064606e-03
-7.209390169009566307e-04
-4.462202778086066246e-04
-9.002008591778576374e-04
5.670196842402219772e-04
-8.105646702460944653e-04
-2.901335246860980988e-04
4.426786676049232483e-03
1.788254594430327415e-03
1.075931242667138577e-03
2.442487049847841263e-03
3.070889040827751160e-03
4.438095493242144585e-04
-1.476082717999815941e-03
5.228422116488218307e-03
3.768350579775869846e-04
4.759923613164573908e-04
-4.847948148380964994e-04
2.632632153108716011e-03
1.324250246398150921e-03
5.166300688870251179e-04
-2.802922856062650681e-03
4.030438140034675598e-05
4.983558319509029388e-03
1.683695940300822258e-03
2.207638463005423546e-04
-4.042276414111256599e-04
-1.826829276978969574e-03
1.437870087102055550e-03
2.078848425298929214e-03
2.020075451582670212e-03
-1.821241574361920357e-03
-3.279308788478374481e-03
-1.540266675874590874e-03
4.703170852735638618e-04
1.960136229172348976e-03
1.909186597913503647e-03
-6.870485842227935791e-03
-6.733482703566551208e-03
-1.935784472152590752e-03
-4.541443660855293274e-03
-2.996956696733832359e-03
-4.045049659907817841e-03
-8.909396827220916748e-03
-5.415349267423152924e-03
-6.536125205457210541e-03
-9.263075888156890869e-03
-1.157020032405853271e-02
-1.511890441179275513e-02
-1.600082591176033020e-02
-1.455419324338436127e-02
-9.389726445078849792e-03
-2.569914050400257111e-02
-2.514515630900859833e-02
-6.016665603965520859e-03
-5.043121986091136932e-03
8.746878011152148247e-04
1.615127362310886383e-02
1.384389121085405350e-03
7.670754101127386093e-03
1.620079204440116882e-02
2.192824520170688629e-02
-5.458134226500988007e-03
-3.135485574603080750e-02
-9.161470830440521240e-02
-6.657630950212478638e-02
-7.769025862216949463e-02
-1.387636214494705200e-01
-1.973309069871902466e-01
-1.736030876636505127e-01
-2.037003785371780396e-01
-1.676791310310363770e-01
-1.408047676086425781e-01
-5.989564210176467896e-02
-1.539584249258041382e-01
-3.276818199083209038e-03
1.223660036921501160e-01
1.584630906581878662e-01
2.009972780942916870e-01
2.849927246570587158e-01
3.543572127819061279e-01
2.622637152671813965e-01
3.345799148082733154e-01
2.495685964822769165e-01
1.761851310729980469e-01
1.104122996330261230e-01
8.057244122028350830e-02
-6.393557786941528320e-02
-1.888528764247894287e-01
-2.108916342258453369e-01
-1.157388016581535339e-01
-5.445795506238937378e-02
-3.735400363802909851e-02
-2.822718583047389984e-02
1.195197179913520813e-02
-1.115711405873298645e-03
-2.629356458783149719e-03
3.571679443120956421e-02
1.400024257600307465e-02
2.458430454134941101e-02
5.137395858764648438e-02
3.530947864055633545e-02
2.842924185097217560e-02
1.840594969689846039e-02
2.303581871092319489e-02
1.668154075741767883e-02
1.162880752235651016e-02
8.176225237548351288e-03
9.183906018733978271e-03
8.059407584369182587e-03
4.928439157083630562e-04
-1.538950484246015549e-03
-2.583849709481000900e-03
7.160104811191558838e-03
3.687441116198897362e-03
1.819461816921830177e-03
4.576217848807573318e-03
2.327033784240484238e-03
6.299038883298635483e-03
2.634692937135696411e-03
3.343536285683512688e-03
2.456895308569073677e-03
4.433705005794763565e-03
8.890583412721753120e-04
4.095299169421195984e-03
6.049596238881349564e-03
7.363985758274793625e-03
1.035090256482362747e-02
6.987500004470348358e-03
4.917445592582225800e-03
2.378186210989952087e-03
4.698577336966991425e-03
1.846412662416696548e-03
9.179486893117427826e-03
6.373214535415172577e-03
8.101769722998142242e-03
6.943264976143836975e-03
8.881602436304092407e-03
-3.574402071535587311e-04
3.137424821034073830e-03
2.688533626496791840e-03
2.689125016331672668e-03
1.669085584580898285e-03
-2.514728344976902008e-03
1.504705054685473442e-03
1.456068130210042000e-04
1.279806485399603844e-03
-4.292858298867940903e-03
2.612015698105096817e-03
4.327191505581140518e-03
5.328366532921791077e-03
4.361001309007406235e-03
6.578218191862106323e-03
5.234873853623867035e-03
5.117155145853757858e-03
1.396653708070516586e-03
7.402227725833654404e-03
4.938129335641860962e-03
2.912188647314906120e-03
2.102710539475083351e-03
4.815186839550733566e-03
4.231692291796207428e-03
3.335686866194009781e-03
1.208702800795435905e-03
2.884244546294212341e-03
1.196356839500367641e-03
6.538068410009145737e-03
2.785551361739635468e-03
3.629246260970830917e-03
2.023675944656133652e-03
3.145784372463822365e-03
3.088767989538609982e-04
4.383358173072338104e-03
2.785091521218419075e-03
2.056056167930364609e-03
2.599343657493591309e-03
2.733975416049361229e-03
-2.888299059122800827e-05
2.551346085965633392e-03
4.685342428274452686e-04
-5.756262107752263546e-04
-9.111276594921946526e-04
8.863682160153985023e-04
-6.908329669386148453e-05
6.224155658856034279e-04
-5.132537335157394409e-04
-2.095182659104466438e-03
1.328690210357308388e-03
1.243884442374110222e-03
3.018477582372725010e-05
-1.278797048144042492e-03
-1.735295634716749191e-03
-8.055823855102062225e-05
-2.389215165749192238e-03
2.279042266309261322e-03
9.130744729191064835e-04
-1.043460331857204437e-03
2.687663654796779156e-04
-4.043655353598296642e-04
-1.289954874664545059e-03
-6.639447383349761367e-05
6.761702243238687515e-04
-1.533763948827981949e-03
1.573926070705056190e-03
-1.981608802452683449e-04
2.339468104764819145e-03
1.840222859755158424e-03
-1.987770199775695801e-03
-1.503287814557552338e-03
-1.439781044609844685e-03
-2.915935474447906017e-04
1.670382451266050339e-03
2.217524917796254158e-03
-3.536035073921084404e-03
-6.406593602150678635e-04
-8.138794801197946072e-04
-1.148752053268253803e-03
-1.691525685600936413e-04
-4.589584423229098320e-04
2.511556958779692650e-03
-2.538909669965505600e-03
7.417676970362663269e-04
7.632546476088464260e-04
1.435997313819825649e-03
1.058626687154173851e-03
2.475593006238341331e-03
1.227527623996138573e-03
2.569227945059537888e-04
-2.322194399312138557e-03
-1.943877199664711952e-03
-1.466170535422861576e-03
-1.472598873078823090e-03
-2.587323077023029327e-03
-2.594516612589359283e-03
-2.687740139663219452e-03
7.695506792515516281e-05
-3.357877722010016441e-03
-2.897028345614671707e-03
-5.719666369259357452e-03
-1.183540793135762215e-03
-3.075803630053997040e-03
-6.496575195342302322e-03
-4.787956364452838898e-03
-3.965407144278287888e-03
-2.640171675011515617e-03
-4.905757959932088852e-03
-4.118597600609064102e-03
-2.744386903941631317e-03
3.966364311054348946e-04
-5.436609499156475067e-03
-2.779832342639565468e-03
-2.562006935477256775e-03
-2.251844853162765503e-03
-2.707028295844793320e-03
-9.448927594348788261e-04
-3.183428198099136353e-04
-6.055291742086410522e-04
-3.498557722195982933e-03
-4.695453215390443802e-03
-6.565044634044170380e-03
-5.740476772189140320e-03
-4.410701803863048553e-03
-2.066221321001648903e-03
-1.512488815933465958e-03
-2.098335884511470795e-03
-2.448229584842920303e-03
-2.376303775236010551e-03
-3.350118640810251236e-03
-3.751139622181653976e-03
-5.777160637080669403e-03
-4.353534895926713943e-03
-2.482485491782426834e-03
-6.530740298330783844e-03
-4.059806466102600098e-03
-8.518647402524948120e-03
-6.400410551577806473e-03
-1.057796087116003036e-02
-6.403442937880754471e-03
-5.359836388379335403e-03
-4.774186760187149048e-03
-8.710312657058238983e-03
-6.872830912470817566e-03
-8.538566529750823975e-03
-6.793322972953319550e-03
-8.695472963154315948e-03
-7.425657939165830612e-03
-9.492018260061740875e-03
-9.857606142759323120e-03
-8.643458597362041473e-03
-8.935621939599514008e-03
-8.809965103864669800e-03
-9.580690413713455200e-03
-9.196033701300621033e-03
-1.041756849735975266e-02
-7.141706068068742752e-03
-8.002479560673236847e-03
-8.998760022222995758e-03
-1.057302951812744141e-02
-9.792393073439598083e-03
-9.528951719403266907e-03
-9.769736789166927338e-03
-1.143288332968950272e-02
-9.647216647863388062e-03
-1.036334969103336334e-02
-9.050884284079074860e-03
-1.185427140444517136e-02
-1.366265118122100830e-02
-1.055726036429405212e-02
-8.320280350744724274e-03
-1.374586485326290131e-02
-1.289845630526542664e-02
-1.615874469280242920e-03
-9.506294503808021545e-03
-5.688224453479051590e-03
-9.588593617081642151e-03
-4.076563753187656403e-03
-2.695690374821424484e-03
3.761601634323596954e-03
4.514980595558881760e-03
5.437514744699001312e-03
1.943385112099349499e-03
3.731499426066875458e-03
-1.106295082718133926e-02
-1.040538214147090912e-02
-4.174076952040195465e-03
9.739606175571680069e-04
-5.120052956044673920e-04
-9.203053079545497894e-03
-1.350575126707553864e-02
-4.601961001753807068e-03
-5.477009341120719910e-03
-3.470362629741430283e-03
-8.189156651496887207e-03
-6.652389653027057648e-03
-4.924193024635314941e-03
-3.585030324757099152e-03
-5.702492780983448029e-03
-2.999568823724985123e-03
-5.952666979283094406e-03
-1.051443628966808319e-02
-9.485293179750442505e-03
-9.456472471356391907e-03
-2.526048384606838226e-02
-3.721214085817337036e-02
-7.102129608392715454e-02
-6.335245072841644287e-02
-4.692965000867843628e-02
-1.068161949515342712e-01
-1.337905973196029663e-01
-1.053251922130584717e-01
-1.033237725496292114e-01
-1.393227279186248779e-01
-6.010519340634346008e-02
-5.937466397881507874e-02
-1.098562031984329224e-01
2.078116498887538910e-02
1.065168157219886780e-01
7.908284664154052734e-02
1.639886051416397095e-01
1.598263829946517944e-01
3.053611516952514648e-01
2.292978614568710327e-01
2.955217063426971436e-01
2.156186550855636597e-01
1.104743704199790955e-01
7.422835379838943481e-02
-3.541201725602149963e-02
-2.765127420425415039e-01
-2.852949500083923340e-01
-2.580686807632446289e-01
-2.347884029150009155e-01
-2.036231309175491333e-01
-2.310480624437332153e-01
-1.507426202297210693e-01
-1.579586975276470184e-02
6.875669211149215698e-02
1.402965039014816284e-01
6.368064135313034058e-02
2.454600036144256592e-01
1.615268886089324951e-01
2.887180745601654053e-01
2.517402172088623047e-01
2.251517176628112793e-01
1.530007421970367432e-01
1.255249977111816406e-01
6.418271362781524658e-02
1.267212443053722382e-03
-8.259329199790954590e-02
-9.809701144695281982e-02
-6.384845077991485596e-02
-3.674002364277839661e-02
-4.712153598666191101e-02
-4.395131021738052368e-03
-8.910223841667175293e-03
-1.351005956530570984e-02
-9.356356225907802582e-03
3.568958956748247147e-03
-3.504236694425344467e-03
-6.624467670917510986e-03
-2.905715256929397583e-03
3.510583657771348953e-03
1.011330023175105453e-04
5.463657435029745102e-04
1.311004627496004105e-03
2.605981659144163132e-03
3.628307022154331207e-03
4.666237160563468933e-03
2.327444497495889664e-03
1.183615298941731453e-03
6.726533174514770508e-04
1.642231014557182789e-03
-1.512762508355081081e-03
1.906070159748196602e-03
2.163391327485442162e-04
1.445444417186081409e-03
-1.891636289656162262e-03
-1.698886509984731674e-03
-2.124994760379195213e-03
-9.522973559796810150e-04
-2.206869656220078468e-03
-4.308313596993684769e-03
-2.322148531675338745e-03
-3.148732008412480354e-03
-2.707183593884110451e-03
-1.814636401832103729e-03
-3.568389220163226128e-04
-4.184141755104064941e-03
-3.383416216820478439e-03
-3.693097736686468124e-03
1.087045762687921524e-03
-3.845892148092389107e-03
-6.686243694275617599e-03
-5.120001733303070068e-03
-2.942607272416353226e-03
-5.119602661579847336e-03
-8.643884211778640747e-03
-5.789236631244421005e-03
-1.333124935626983643e-03
-9.176759049296379089e-03
-9.072471410036087036e-03
-4.111851565539836884e-03
-6.020915228873491287e-03
-6.852899678051471710e-03
3.147590206936001778e-03
-1.469865674152970314e-05
-3.700981382280588150e-03
-2.270614262670278549e-03
7.532538380473852158e-03
5.572975147515535355e-03
7.349090185016393661e-03
9.165300056338310242e-03
6.405509077012538910e-03
8.249880746006965637e-03
1.496844366192817688e-02
1.262567937374114990e-02
1.174078229814767838e-02
1.000861823558807373e-02
2.426689257845282555e-03
2.389911795035004616e-03
6.093971896916627884e-04
2.143505727872252464e-03
8.737239404581487179e-04
-5.392944440245628357e-03
1.183743122965097427e-03
-7.363400422036647797e-03
-6.395609583705663681e-03
-4.674549680203199387e-03
-3.823251463472843170e-03
-2.609372604638338089e-04
-1.341509539633989334e-02
-1.255743950605392456e-02
-5.666770506650209427e-03
-1.675455272197723389e-02
-1.561744790524244308e-02
-2.983152167871594429e-03
-1.073531899601221085e-02
-6.776893045753240585e-03
-2.222977019846439362e-02
-1.895963214337825775e-02
-2.119878679513931274e-02
-3.600088879466056824e-02
-3.601462021470069885e-02
3.315323498100042343e-03
-3.698210464790463448e-03
-4.384472966194152832e-02
-1.437315251678228378e-02
1.508508715778589249e-02
-2.160129882395267487e-02
2.434408233966678381e-04
3.524350747466087341e-02
1.478718128055334091e-02
2.117669954895973206e-02
6.747254729270935059e-02
4.084526002407073975e-02
-2.204688498750329018e-03
2.404325082898139954e-02
-1.894650980830192566e-02
-2.490344643592834473e-02
-7.236693799495697021e-02
-1.489327251911163330e-01
-1.210925579071044922e-01
-1.551581174135208130e-01
-2.072981297969818115e-01
-2.371985912322998047e-01
-1.608179062604904175e-01
-1.997737437486648560e-01
-2.178814411163330078e-01
-6.050539761781692505e-02
-1.001177355647087097e-01
-7.601377367973327637e-02
1.480442136526107788e-01
1.284450143575668335e-01
2.795883119106292725e-01
2.438048273324966431e-01
4.006287455558776855e-01
3.423860967159271240e-01
4.168802499771118164e-01
3.132771551609039307e-01
3.348228335380554199e-01
2.320643663406372070e-01
2.810702621936798096e-01
4.386932030320167542e-02
-1.380414664745330811e-01
-2.917577028274536133e-01
-2.584060728549957275e-01
-2.305949479341506958e-01
-2.365205585956573486e-01
-1.142856180667877197e-01
-8.371562510728836060e-02
-2.574921585619449615e-02
1.136251986026763916e-01
6.651398539543151855e-02
9.257611632347106934e-02
1.086384356021881104e-01
9.331410378217697144e-02
1.245147809386253357e-01
1.136276125907897949e-01
8.406615257263183594e-02
6.073893979191780090e-02
1.936089247465133667e-02
1.841696910560131073e-02
-1.727369427680969238e-02
-2.736472710967063904e-02
-8.243379183113574982e-03
-7.038446143269538879e-03
-9.891344234347343445e-04
6.820028647780418396e-04
-6.685469299554824829e-03
6.171048618853092194e-03
5.088299047201871872e-03
3.885250771418213844e-05
-1.235987292602658272e-03
2.020648913457989693e-03
6.484702695161104202e-03
4.058061633259057999e-03
6.177856121212244034e-03
2.107447246089577675e-03
5.705011542886495590e-03
5.294615402817726135e-03
9.770439937710762024e-03
8.581792004406452179e-03
5.798981059342622757e-03
6.877801846712827682e-03
7.372562773525714874e-03
6.568942684680223465e-03
1.126388926059007645e-02
7.697291206568479538e-03
1.203799713402986526e-02
1.166599523276090622e-02
1.064918469637632370e-02
2.194096567109227180e-03
9.971989784389734268e-04
7.435616571456193924e-03
5.781576037406921387e-03
8.451549336314201355e-03
8.959392085671424866e-03
3.349991748109459877e-03
3.579320386052131653e-03
1.011838857084512711e-02
1.793965580873191357e-03
2.431361936032772064e-03
3.580949269235134125e-04
8.688881993293762207e-03
3.181050997227430344e-03
6.953939329832792282e-03
5.496711935847997665e-03
6.330171134322881699e-03
5.846939515322446823e-03
2.803770825266838074e-03
8.533265441656112671e-03
7.127827033400535583e-03
1.361445430666208267e-02
1.146432664245367050e-02
1.285757590085268021e-02
4.572659730911254883e-03
1.008811034262180328e-02
4.218998830765485764e-03
1.060218084603548050e-02
8.912799879908561707e-03
6.780010648071765900e-03
1.150283869355916977e-02
7.160108536481857300e-03
1.947928685694932938e-03
-9.313999908044934273e-05
9.241699241101741791e-03
7.971164770424365997e-03
5.368109326809644699e-03
3.825191408395767212e-03
2.895237179473042488e-03
2.657437231391668320e-03
4.128184635192155838e-03
4.478451330214738846e-03
2.784796291962265968e-03
4.655802156776189804e-03
2.886780537664890289e-03
6.092382594943046570e-03
2.452902961522340775e-03
-2.004674170166254044e-03
1.981177367269992828e-03
1.500929589383304119e-03
3.122075577266514301e-04
7.850078400224447250e-04
7.700515445321798325e-03
5.005625076591968536e-03
9.076537098735570908e-04
-2.530577825382351875e-03
-1.367975375615060329e-03
3.491482231765985489e-03
2.193936961703002453e-05
-4.300710279494524002e-03
-2.870074822567403316e-04
-5.020565818995237350e-03
-5.348039790987968445e-03
-1.899764407426118851e-03
-1.406719675287604332e-03
-6.955944932997226715e-03
-7.043111603707075119e-03
1.053542736917734146e-02
4.290936980396509171e-03
7.481146603822708130e-03
1.270461175590753555e-02
4.392215050756931305e-03
9.691987186670303345e-03
3.452999051660299301e-03
2.360494574531912804e-03
4.994164220988750458e-03
8.812584914267063141e-03
9.027888998389244080e-03
-3.977024927735328674e-03
-1.182586979120969772e-02
-5.692997947335243225e-03
-3.871249500662088394e-03
5.586607847362756729e-03
-5.859143100678920746e-03
1.645854790695011616e-03
2.778827911242842674e-03
6.837708409875631332e-03
1.261064875870943069e-02
4.220910836011171341e-03
6.012910511344671249e-03
3.444316564127802849e-03
-5.341041833162307739e-03
1.129632908850908279e-02
4.895728547126054764e-03
1.211477909237146378e-02
6.064303684979677200e-03
1.190420053899288177e-02
7.212401367723941803e-03
2.784398617222905159e-03
-4.838859196752309799e-03
-6.958136800676584244e-03
1.241003163158893585e-02
1.301280688494443893e-02
1.511295512318611145e-02
8.112295530736446381e-03
4.552719183266162872e-03
7.129654753953218460e-03
-1.335209235548973083e-03
9.063362143933773041e-03
5.032584536820650101e-03
7.698507048189640045e-03
6.292585283517837524e-03
5.983262322843074799e-03
1.655564410611987114e-03
-1.609203172847628593e-03
5.662128329277038574e-03
3.979100845754146576e-03
2.677314914762973785e-03
1.082231989130377769e-03
5.387934856116771698e-03
6.395185831934213638e-03
4.382972605526447296e-03
4.929547198116779327e-03
2.116735326126217842e-03
4.651194903999567032e-03
4.616593942046165466e-03
4.089078400284051895e-03
7.609635358676314354e-04
6.754414644092321396e-03
6.724980659782886505e-03
3.576244926080107689e-03
2.731376094743609428e-03
4.076684825122356415e-03
1.907436177134513855e-03
6.185144651681184769e-03
-4.358319565653800964e-04
7.792153628543019295e-04
1.479654165450483561e-04
-1.852945657446980476e-03
4.763382486999034882e-03
-2.673526760190725327e-03
-1.878102193586528301e-03
-1.618999522179365158e-04
1.905340468510985374e-04
2.308497205376625061e-03
2.996861701831221581e-03
2.497419482097029686e-04
-1.974860671907663345e-03
-2.578272949904203415e-03
-3.057371359318494797e-03
5.125158932060003281e-04
-2.432802924886345863e-03
-1.191006158478558064e-03
-2.621825784444808960e-03
-5.922059062868356705e-03
-7.084339740686118603e-04
-8.719292236492037773e-04
-2.728906692937016487e-03
3.305228892713785172e-04
-5.563590209931135178e-03
-5.113402381539344788e-03
-5.269402172416448593e-03
-5.074510350823402405e-03
-6.704886909574270248e-03
-3.821580903604626656e-03
-5.955355241894721985e-03
-4.935497883707284927e-03
-4.035105928778648376e-03
-5.534578580409288406e-03
-2.899622311815619469e-03
-8.519438095390796661e-03
-9.628161787986755371e-03
-5.652305204421281815e-03
-4.877065308392047882e-03
-4.204858560115098953e-03
-5.213673692196607590e-03
-5.407838150858879089e-03
-5.199351813644170761e-03
-5.094696767628192902e-03
-3.189578885212540627e-03
-5.899597890675067902e-03
-4.212210420519113541e-03
-5.148841533809900284e-03
-5.991036538034677505e-03
-6.019639782607555389e-03
-5.658101290464401245e-03
-8.552411571145057678e-03
-6.702874787151813507e-03
-3.674310632050037384e-03
-6.050665397197008133e-03
-2.167812548577785492e-03
-5.880603566765785217e-03
-4.301704466342926025e-03
-1.745026675052940845e-03
-4.495874047279357910e-03
-4.447797313332557678e-03
-3.414252540096640587e-03
-2.986325183883309364e-03
-1.196434604935348034e-03
-3.907747101038694382e-03
-4.412549547851085663e-03
-6.084022112190723419e-03
-5.284031387418508530e-03
-2.936261007562279701e-04
-3.802509978413581848e-03
-4.841468296945095062e-03
-4.320074338465929031e-03
-5.821997299790382385e-03
-4.830811172723770142e-03
-4.076990298926830292e-03
-2.789505757391452789e-03
-2.155594760552048683e-03
-5.156273022294044495e-03
-3.650230821222066879e-03
-4.204247612506151199e-03
