1.310000000000000000e+02,1.376554300082169675e+02,1.408399902303044359e-04,3.472175993746365634e+02,2.814231217388277239e-04
1.893000000000000000e+03,1.200822278023010909e+02,3.244309164102054336e-04,2.473303526982037113e+02,3.245552868100157586e-04
6.960000000000000000e+02,1.093023831871461056e+02,8.583211966411898736e-04,2.606044970394513030e+02,3.638316793506676328e-04
1.588000000000000000e+03,1.007604508635729985e+02,3.712175511650247736e-04,2.347845017138248807e+02,2.387917136212218731e-04
1.100000000000000000e+03,9.777076256771627527e+01,7.781680714732609652e-05,1.934249656935467954e+02,1.951754457525589832e-04
1.907000000000000000e+03,9.574236551618142244e+01,1.258116128298236768e-04,2.138339816313861093e+02,2.231010054248354032e-04
7.890000000000000000e+02,9.528585981266334670e+01,1.455430835822709454e-04,2.193626271056539849e+02,2.028946909069547617e-04
1.587000000000000000e+03,9.493037422045604501e+01,1.627035047753547248e-04,2.126251723597133321e+02,2.979104001176978976e-04
7.370000000000000000e+02,9.080698419376055597e+01,1.357151933011486989e-04,2.102796530060353177e+02,2.961594014597678762e-04
1.937000000000000000e+03,9.057454843905054531e+01,1.509039682281582953e-04,1.635078387931768873e+02,2.074692962180846225e-04
1.317000000000000000e+03,8.755110470344141049e+01,1.858681748159932547e-04,1.887235742427292564e+02,2.870356631654496300e-04
9.140000000000000000e+02,8.688311592959854579e+01,2.902084657252775946e-04,1.601617490158444355e+02,1.758096253398160589e-04
4.340000000000000000e+02,8.513557158970920113e+01,2.150574424024727805e-04,1.730737952388370502e+02,2.021643757590934753e-04
3.290000000000000000e+02,8.434364201847111531e+01,1.621162990580373581e-04,1.883108686821636013e+02,2.275743676617369927e-04
5.930000000000000000e+02,8.310175310076134281e+01,5.876789187769627070e-05,1.641869842237920807e+02,2.273343269869689573e-04
1.400000000000000000e+03,8.264547275831327511e+01,6.823225026414535147e-05,2.001506097094128336e+02,2.396399302956829503e-04
1.627000000000000000e+03,8.152648190944501039e+01,1.052723358595044782e-04,1.840432638384232860e+02,1.990637210368324827e-04
1.115000000000000000e+03,8.033586603343420052e+01,6.941846716478864299e-04,1.842887389471530355e+02,1.491784471746009240e-04
2.005000000000000000e+03,7.973935284579509641e+01,5.912370866919310769e-04,1.672893033328468277e+02,2.107518015395707343e-04
2.900000000000000000e+01,7.816687777760567712e+01,3.320096483653041798e-04,1.723634085731060281e+02,2.172396287306297454e-04
5.210000000000000000e+02,7.766175535092925486e+01,1.315233885659796657e-04,1.680808393074208880e+02,1.813529527363897482e-04
7.460000000000000000e+02,7.765191758757420359e+01,4.899942363038337984e-05,2.062800403039534842e+02,2.514292347268371505e-04
6.030000000000000000e+02,7.692011723940035495e+01,2.103707528661585824e-04,1.754556739487291850e+02,1.858017210911385743e-04
1.586000000000000000e+03,7.670643220754826075e+01,1.327650425989024534e-04,1.670331670995756497e+02,1.725986446943686805e-04
2.024000000000000000e+03,7.543146235875967420e+01,1.116171555726004822e-04,1.714633973436315273e+02,1.951652299947709149e-04
3.240000000000000000e+02,7.517605753563515236e+01,3.440417879368477751e-04,1.557996483369160785e+02,1.754802580104044304e-04
1.461000000000000000e+03,7.304625377685310639e+01,1.045165989269556517e-04,1.759994254405645222e+02,1.865441990111213792e-04
1.722000000000000000e+03,7.250433200354393648e+01,1.868724350219638818e-04,1.550895456794077063e+02,1.691018007929614888e-04
1.380000000000000000e+02,7.249667759817614865e+01,1.947288252907228561e-04,1.777231168498254306e+02,2.066182615869644032e-04
1.825000000000000000e+03,7.247979123010441072e+01,4.601480325786966031e-05,1.541706170543448025e+02,1.352683246081238481e-04
1.230000000000000000e+02,7.147452916917627874e+01,8.541354452404650280e-05,1.431124131798022745e+02,1.426876973414565361e-04
5.220000000000000000e+02,7.114826368063448570e+01,1.469761529901617958e-04,1.389136798573594831e+02,1.355693030249549168e-04
1.672000000000000000e+03,7.084882993269047802e+01,6.056604434526453710e-05,1.553180102531380271e+02,1.309072994110114586e-04
1.469000000000000000e+03,6.991385398135079754e+01,9.195512488021139266e-05,1.465975655057831659e+02,2.171799975420132551e-04
3.350000000000000000e+02,6.943571953505107786e+01,3.511462287500490698e-05,1.606285543091783268e+02,1.453376997975919661e-04
1.345000000000000000e+03,6.942136812908366039e+01,1.065566559175083240e-04,1.439494074267403789e+02,1.769102552842007731e-04
3.270000000000000000e+02,6.940224740629518863e+01,5.231036705432225191e-05,1.741766188231410979e+02,1.561482672839288729e-04
8.070000000000000000e+02,6.911648437205209916e+01,3.613270141999196604e-05,1.628044043158039642e+02,9.839415017285668729e-05
8.920000000000000000e+02,6.850335309631665837e+01,2.506802955606200647e-04,1.435119817252579253e+02,2.198743442059852772e-04
1.581000000000000000e+03,6.827261664437617128e+01,7.656645760326499849e-05,1.528846378650052316e+02,1.586960297811217417e-04
8.500000000000000000e+02,6.420892406636320970e+01,6.878656349411122351e-05,1.423521091921618620e+02,1.947595461269762936e-04
1.997000000000000000e+03,6.347286982955079537e+01,1.313345689882831793e-04,1.479826082276386217e+02,1.765040936245983248e-04
1.852000000000000000e+03,6.331554957262469685e+01,1.810419246451091266e-04,1.221296190208459933e+02,1.107626231213301363e-04
1.834000000000000000e+03,6.285508674506459670e+01,1.593669037361728977e-04,1.278159360575614869e+02,1.930977965884992493e-04
1.620000000000000000e+02,6.193211358348666806e+01,1.474083225568479532e-04,1.306277472539765938e+02,2.058952727426756866e-04
4.430000000000000000e+02,6.045596496380387919e+01,5.668409560419318332e-05,1.378829336182954535e+02,2.407672748830195521e-04
1.286000000000000000e+03,6.006372427795399460e+01,5.537055354276992328e-05,1.600888487498946517e+02,2.236503440582205684e-04
2.036000000000000000e+03,5.910286938485063502e+01,1.458005593576190814e-04,1.217825061917530718e+02,1.532282907608525598e-04
5.540000000000000000e+02,5.909747160390098486e+01,4.524696487924444182e-05,1.160098556074987783e+02,1.279835400961370552e-04
5.720000000000000000e+02,5.856474854734560864e+01,9.510340589755489338e-05,1.117566904409454622e+02,1.375449830652670179e-04
1.487000000000000000e+03,5.835478317059025244e+01,6.001912540186954827e-05,1.361888695704837744e+02,1.617302108346507750e-04
1.407000000000000000e+03,5.830715049856625853e+01,8.904013695933405261e-05,1.225465167031655085e+02,1.921645421166412763e-04
1.072000000000000000e+03,5.821196666041551993e+01,6.127354931930893353e-05,1.299258586718395634e+02,1.264027219395560833e-04
2.056000000000000000e+03,5.731687745062366446e+01,2.719654440517139536e-04,1.335620816919815752e+02,1.519420858233089255e-04
1.154000000000000000e+03,5.694816094434388276e+01,1.125198691134104154e-04,1.234890873172353594e+02,1.493066760151068859e-04
8.000000000000000000e+00,5.674509269861871985e+01,3.662001649746831358e-05,1.179337707248792384e+02,1.631200817437558582e-04
8.490000000000000000e+02,5.539739216262740484e+01,4.168655069353598608e-05,1.370242086136188391e+02,1.180081557409321804e-04
8.870000000000000000e+02,5.517089011839160406e+01,6.083611512867474644e-05,1.348992351249834201e+02,1.326511190450341260e-04
5.560000000000000000e+02,5.505587289250399863e+01,1.015541766857852216e-04,1.196220578158124681e+02,1.912066637826502903e-04
2.880000000000000000e+02,5.345097908382591356e+01,3.786367791151459594e-05,1.052119559225605343e+02,9.855240241337227900e-05
8.890000000000000000e+02,5.321394269956051204e+01,2.747822199650452622e-05,1.047690974746667649e+02,1.220714231590497290e-04
7.880000000000000000e+02,5.320786906044971687e+01,8.862535098044895443e-05,9.777220388656054695e+01,1.202698641450236010e-04
1.872000000000000000e+03,5.269672216724481473e+01,7.726982701494423337e-05,1.111545990350611675e+02,1.484825996577011453e-04
1.068000000000000000e+03,5.252317275142177522e+01,9.167787628984287664e-05,1.033591787999197606e+02,9.894309504782840422e-05
1.100000000000000000e+02,5.156937648499866356e+01,2.945267780519553749e-05,1.098384710811730116e+02,1.089932422237802637e-04
1.564000000000000000e+03,5.154693975432609676e+01,9.167172925749547945e-05,9.932361159791112470e+01,7.499866169993111111e-05
5.230000000000000000e+02,5.143990546813736131e+01,5.135910007851519145e-05,1.061903682700990288e+02,1.479988479859121087e-04
1.716000000000000000e+03,5.077316318912406246e+01,2.115000503053343655e-05,1.145580023024270417e+02,9.264794853905228506e-05
2.066000000000000000e+03,5.060806688372298368e+01,2.398259562382407798e-05,1.048378669833974328e+02,1.043588303578191039e-04
9.170000000000000000e+02,4.980722417614083497e+01,4.744402277405796408e-05,1.045837638206640605e+02,8.419055688029654730e-05
1.929000000000000000e+03,4.962360414698245847e+01,5.220668220132969610e-05,1.181239253293293672e+02,1.528886375550936024e-04
1.563000000000000000e+03,4.900079131711429170e+01,3.799476125849147464e-05,1.034537243627268595e+02,9.943984892168408274e-05
1.295000000000000000e+03,4.856581392843067135e+01,3.763994650283205374e-05,1.190524037024237458e+02,1.280903952447849279e-04
1.676000000000000000e+03,4.845010434782042097e+01,6.607248455532297674e-05,1.030664507555500791e+02,1.554612332313927978e-04
1.928000000000000000e+03,4.840061850427650114e+01,8.499911554724254076e-05,1.035451853163307305e+02,1.207694543643487664e-04
6.080000000000000000e+02,4.783784161274864033e+01,1.829822623632134681e-05,9.266338962932607615e+01,7.575156366827079119e-05
1.124000000000000000e+03,4.702435880054572692e+01,1.782292011709947022e-04,1.109755472072795897e+02,1.430707579090325688e-04
1.870000000000000000e+02,4.685323132959732106e+01,1.710887875550278850e-05,1.217398568093069429e+02,1.016843953854958121e-04
3.990000000000000000e+02,4.672877689750123409e+01,5.905060070888156192e-05,8.179802596642613821e+01,1.108670702737166088e-04
3.420000000000000000e+02,4.672138514571049939e+01,2.795097496744121106e-05,8.970954983340843114e+01,1.100317915796040065e-04
4.610000000000000000e+02,4.660718469154181065e+01,7.721431920783690351e-05,1.052267756622230337e+02,1.077738496597104273e-04
1.836000000000000000e+03,4.642075288671234290e+01,9.394306732861721449e-05,9.293883165383269329e+01,1.161163623706954731e-04
1.418000000000000000e+03,4.581507333854770536e+01,1.955586968230048697e-04,9.594890244684320635e+01,1.592408614271741672e-04
3.890000000000000000e+02,4.575240289595548404e+01,1.242965830510210689e-04,8.515581122301240669e+01,1.204603365781803880e-04
9.160000000000000000e+02,4.572370241335444518e+01,3.942961786906783097e-05,8.911819597286054773e+01,7.448483794803341677e-05
6.400000000000000000e+02,4.551797553956926379e+01,5.999235513360200736e-05,9.313845051419683330e+01,1.010134499430171063e-04
1.281000000000000000e+03,4.517624926939237184e+01,3.947724041317054707e-05,7.921395720301559606e+01,1.050548323020301261e-04
6.560000000000000000e+02,4.470929517111972018e+01,4.475625558627495962e-05,9.298417106147238087e+01,1.182411053834689954e-04
6.900000000000000000e+01,4.459541688028259188e+01,4.607349306016956083e-05,1.209936637023600525e+02,1.017512430132801079e-04
7.090000000000000000e+02,4.417621732383467048e+01,2.932081048386508040e-05,1.027651912568644974e+02,1.172288122211395038e-04
6.500000000000000000e+01,4.347410088179196919e+01,1.030925428630535498e-04,1.069154072130937294e+02,3.185131769938779191e-04
8.550000000000000000e+02,4.333405213743104412e+01,6.742980716211284488e-05,9.520229776010465628e+01,1.143835287165646895e-04
8.350000000000000000e+02,4.315053470471782759e+01,4.556098351011385583e-05,8.167290735803126722e+01,1.777527292446345289e-04
1.651000000000000000e+03,4.306215820480098699e+01,4.054566179095693389e-05,8.725756206682788729e+01,1.178721078786678712e-04
1.332000000000000000e+03,4.291780869942541443e+01,5.384673388487665570e-05,9.855437736539694527e+01,1.275998405974395787e-04
1.152000000000000000e+03,4.254793770451505708e+01,2.886193357782217378e-04,1.041675844670099593e+02,1.468573673396592538e-04
7.230000000000000000e+02,4.224152387551719556e+01,3.490838300177932438e-05,9.148495531827302329e+01,1.135692957152504873e-04
5.290000000000000000e+02,4.220281256162977712e+01,1.656660899628739652e-05,8.424798034343922382e+01,8.530595688899653064e-05
5.110000000000000000e+02,4.200932375708546829e+01,3.850314275216101752e-05,7.964697114073267414e+01,8.730638126172068816e-05
1.191000000000000000e+03,4.177338570854349342e+01,1.453415786249497592e-05,8.450368601681829261e+01,5.706696593843428567e-05
1.649000000000000000e+03,4.133129593017508796e+01,1.074174650566061585e-04,8.902796233282747096e+01,1.016312090066422104e-04
1.280000000000000000e+03,4.106837568113269299e+01,2.394261925838411619e-05,8.714925367682447188e+01,8.475704221491330243e-05
1.944000000000000000e+03,4.105636443247959733e+01,3.642853829683012222e-05,9.455681346430205281e+01,1.134623815786683671e-04
7.700000000000000000e+02,4.098598587700060847e+01,9.944448478337530005e-05,9.093119881865959542e+01,1.260772715048247728e-04
1.274000000000000000e+03,4.039445922131707079e+01,4.276399695218723068e-05,8.863585413131006874e+01,1.123755497908037924e-04
1.746000000000000000e+03,4.021936301488705823e+01,4.909882785098503233e-05,9.548890018233534249e+01,9.307699396743438890e-05
1.375000000000000000e+03,4.006969361992886292e+01,8.784101834807360443e-05,9.235232057835345643e+01,9.258772406727572757e-05
1.140000000000000000e+02,4.003196095969720147e+01,2.746591978739440712e-05,9.264286544588001959e+01,7.668271297577811617e-05
1.737000000000000000e+03,4.001100379293438891e+01,1.048746191830015283e-04,7.685615989167125406e+01,1.085483732766910018e-04
1.610000000000000000e+02,3.978030340458631997e+01,2.904447682714547815e-05,9.906339109682753019e+01,8.861230571055498620e-05
2.130000000000000000e+02,3.937611328898066176e+01,4.275157916087292393e-05,8.122922173672350254e+01,7.921817649804440992e-05
6.490000000000000000e+02,3.930265571933497171e+01,9.464646739866728383e-05,7.248391735902767152e+01,9.531996505431110855e-05
6.340000000000000000e+02,3.919101840899990918e+01,3.282165457271862900e-05,9.241937796417471418e+01,1.138609831521233631e-04
1.516000000000000000e+03,3.888768400377449552e+01,2.724489375029813380e-05,9.531890639420747391e+01,1.269867459560131259e-04
1.291000000000000000e+03,3.882283495576724164e+01,1.212768172001116936e-04,1.096443710978629298e+02,2.862808996986954580e-04
8.800000000000000000e+01,3.880279812116447857e+01,3.862961230040277559e-05,8.545738547187156087e+01,8.480041658338730763e-05
3.840000000000000000e+02,3.855158592626357006e+01,2.558188919398465282e-05,8.350620535755950868e+01,1.005040670524540012e-04
7.870000000000000000e+02,3.850052717718453721e+01,4.372379292851657606e-05,8.325001892214355337e+01,1.224405581569953678e-04
5.390000000000000000e+02,3.845103585329924556e+01,8.334733572447671553e-05,7.715457977368338049e+01,9.885646916181093985e-05
9.710000000000000000e+02,3.740747236028221323e+01,8.457993514807050594e-06,8.985575040466734720e+01,6.862289192070796645e-05
9.890000000000000000e+02,3.697171962915129484e+01,1.056873705387227717e-04,8.587141274604570640e+01,8.717234609329558139e-05
1.620000000000000000e+03,3.664869227419744391e+01,2.855910106551400566e-05,7.858365703171841687e+01,1.003623366620596792e-04
5.770000000000000000e+02,3.664756987283250567e+01,8.551970609319597592e-05,7.303358228995818990e+01,7.211230844259885803e-05
9.600000000000000000e+01,3.636891895040003675e+01,4.490874367797733111e-05,7.526487861406009472e+01,1.111876539274465528e-04
9.270000000000000000e+02,3.636485112387474317e+01,7.341599775150354308e-05,6.468509395555980745e+01,1.013992154954489281e-04
9.790000000000000000e+02,3.630891852681675402e+01,3.102905484319423961e-05,7.636240299234115980e+01,6.641857060714825563e-05
1.073000000000000000e+03,3.603857083885136348e+01,1.180209876550465989e-04,8.214056790997318558e+01,8.274294329309577617e-05
1.136000000000000000e+03,3.597439878167284633e+01,2.266097008735785192e-05,8.545769022221739419e+01,8.660854413640870961e-05
4.270000000000000000e+02,3.594910448304329265e+01,9.037185105741803973e-05,8.521374786506855514e+01,1.005415279333243475e-04
1.201000000000000000e+03,3.581490610325948154e+01,1.859730420278729384e-04,8.231440207528095243e+01,1.161273740637820191e-04
2.780000000000000000e+02,3.561425847532633782e+01,1.372412558150291731e-05,7.612393880609553776e+01,8.048002396602995463e-05
1.226000000000000000e+03,3.559369202656964859e+01,2.627321465535554354e-05,8.453336245220165779e+01,9.995652691412060145e-05
1.091000000000000000e+03,3.550606453172169807e+01,2.789322591985301440e-05,6.592115223946042590e+01,1.001793828623013150e-04
1.175000000000000000e+03,3.547248328732667488e+01,5.910920168910053975e-05,7.226371964309696239e+01,6.874456394595860741e-05
1.294000000000000000e+03,3.546613307857019493e+01,2.208577746836354268e-05,7.311459360042603350e+01,9.972099670160131221e-05
1.133000000000000000e+03,3.495122227970252027e+01,3.501225725426412470e-05,7.479160626151174540e+01,1.060046092016644800e-04
2.002000000000000000e+03,3.429205616874055806e+01,4.562788653813305438e-05,7.384595009945429922e+01,8.821456838346021761e-05
1.452000000000000000e+03,3.397418968666946171e+01,6.889140682520915576e-05,8.624806701490595628e+01,1.123725987321605717e-04
4.530000000000000000e+02,3.396704940089855285e+01,2.607171889098259919e-05,7.168352436665090011e+01,1.036575207453430467e-04
1.220000000000000000e+03,3.395169280078904706e+01,3.096506473992559133e-05,6.902477444114273908e+01,8.056642231481650018e-05
1.436000000000000000e+03,3.388216115848156562e+01,3.895752623603598874e-05,7.419616255260656601e+01,9.305550721332541330e-05
4.680000000000000000e+02,3.385336185269291320e+01,2.318110715587955444e-05,7.253305948281008853e+01,9.081041196520278874e-05
5.030000000000000000e+02,3.353459374542897820e+01,6.092659939055232064e-05,6.729572010319678554e+01,6.155191038316130665e-05
1.084000000000000000e+03,3.319769234620237341e+01,2.259459064119071867e-05,7.467876172430320025e+01,8.009324796648890205e-05
1.903000000000000000e+03,3.273586714844355328e+01,6.755276726910624792e-05,9.770673394341532969e+01,2.121969151723384912e-04
1.598000000000000000e+03,3.269658558410699811e+01,1.142728271785672256e-04,6.317188396184209864e+01,9.240374129630255678e-05
9.970000000000000000e+02,3.267532576989805193e+01,7.830745202168685288e-05,7.423341003653935388e+01,6.026484925492560412e-05
1.632000000000000000e+03,3.246985748256155802e+01,3.461174195338644966e-05,6.595979169807472431e+01,6.186320552707558359e-05
1.774000000000000000e+03,3.241930278612657901e+01,2.885979600237253262e-05,6.748455923750643137e+01,6.504064298786117043e-05
7.320000000000000000e+02,3.234652014476248638e+01,9.267368572064884073e-05,6.072217174066482670e+01,7.135983339500139846e-05
4.770000000000000000e+02,3.163846075680951131e+01,2.970269746264394550e-05,7.163123014679561606e+01,6.566957168877037682e-05
6.230000000000000000e+02,3.157386185028851955e+01,2.438923078295627048e-04,6.368871957825211183e+01,8.297367369200041299e-05
1.334000000000000000e+03,3.126359950433404578e+01,1.657043301243119450e-05,7.145750909802875128e+01,5.085790668733512684e-05
1.547000000000000000e+03,3.111867474842812697e+01,5.880746304102045828e-05,6.816988281652126602e+01,6.587240901285102226e-05
1.525000000000000000e+03,3.108962962287194998e+01,1.815187242687035297e-05,6.272847594889873335e+01,8.600931410203906569e-05
1.795000000000000000e+03,3.074859623300548250e+01,3.570778447252833439e-05,6.232415806448285878e+01,1.068548659773969591e-04
6.500000000000000000e+02,3.050142858305908078e+01,5.089303087432834428e-05,6.601453974985611239e+01,6.444209752340889462e-05
1.236000000000000000e+03,3.039935516638699298e+01,4.790145708300909779e-05,5.779068810848793447e+01,6.941522696818162028e-05
1.095000000000000000e+03,3.039769793214763638e+01,9.875871419832343221e-06,6.011175720324471428e+01,4.023589017405462321e-05
7.700000000000000000e+01,3.027414510716106832e+01,6.752858578196550409e-05,6.786036740832105352e+01,8.594561968367814178e-05
5.650000000000000000e+02,3.020729885107765256e+01,2.087627236577140047e-05,6.441799056251306865e+01,8.493809728074458204e-05
8.720000000000000000e+02,3.006473949128727696e+01,3.534993390597200905e-05,6.950506591650672306e+01,6.513692277397158158e-05
1.419000000000000000e+03,2.993079998686827992e+01,3.232789214474225453e-05,6.702217213245793914e+01,4.299531940960279547e-05
4.980000000000000000e+02,2.974621233935580733e+01,4.448611882467280558e-05,7.336492424298434400e+01,6.592961823814891948e-05
1.744000000000000000e+03,2.962573821139275765e+01,3.349657014728900579e-05,5.840743048481259336e+01,1.070009447141091996e-04
6.990000000000000000e+02,2.943301246430396390e+01,6.491265425101159375e-05,6.635622467399100799e+01,7.165024151248704514e-05
1.300000000000000000e+01,2.938696146402349996e+01,1.397284010287825706e-04,5.883848673041381971e+01,9.176692377319750551e-05
1.187000000000000000e+03,2.931545424623992346e+01,3.942193398597369932e-05,6.899611029364386638e+01,7.607620592944452540e-05
1.518000000000000000e+03,2.820059492065754014e+01,6.933319711130376877e-05,6.651320795130050101e+01,1.359775551495429155e-04
1.131000000000000000e+03,2.818680174772727298e+01,1.845487634806733518e-05,6.586788920096610411e+01,5.700853775128866883e-05
1.700000000000000000e+02,2.800670571108071982e+01,3.561275961586205711e-05,5.824354450072757317e+01,7.158258498729916819e-05
9.570000000000000000e+02,2.793527039626001596e+01,5.770973868837633385e-06,5.688215992029059009e+01,3.792259726972516717e-05
1.890000000000000000e+02,2.779070461001932202e+01,5.830361577349668721e-05,4.959260142425999618e+01,7.566305037178182953e-05
2.068000000000000000e+03,2.765118118568948447e+01,3.038644546034408118e-05,6.035937059008944061e+01,7.574210492874312438e-05
1.150000000000000000e+02,2.750272804891564959e+01,2.128197979847757952e-05,6.269144566544548525e+01,1.083000724313900042e-04
9.190000000000000000e+02,2.605216025601827212e+01,4.602310758383392760e-05,5.667275126584174672e+01,6.427129595607565451e-05
8.510000000000000000e+02,2.603347968669215362e+01,3.078122654398475244e-05,5.213264822509975716e+01,5.975400526459811497e-05
2.600000000000000000e+02,2.598754050897458967e+01,9.654736675681566143e-06,6.061686085571643190e+01,4.846369768941869626e-05
1.031000000000000000e+03,2.545912053162960831e+01,1.318582067630813880e-05,5.980852717295964283e+01,4.961877827945683673e-05
8.200000000000000000e+01,2.509064715880429475e+01,1.700415186146158250e-05,5.667231310173081482e+01,7.680381011002055942e-05
1.454000000000000000e+03,2.504348842103235384e+01,4.050712015824123682e-05,5.174282548564752204e+01,6.166771827471541248e-05
6.880000000000000000e+02,2.496707942226403532e+01,1.331537051978081691e-05,4.664993318464689764e+01,5.528035857425165690e-05
7.850000000000000000e+02,2.450190637792615433e+01,1.759967253575456006e-05,4.806545563652540665e+01,5.600150903871202170e-05
1.692000000000000000e+03,2.449598563867363410e+01,3.129443018561614223e-05,5.647987621181948015e+01,6.864402076147099502e-05
2.000000000000000000e+01,2.449282362726466289e+01,4.918528051351003474e-05,5.542879153643262669e+01,6.432976668639373387e-05
2.004000000000000000e+03,2.429080583355964862e+01,6.051898164181337362e-05,6.034055009139414238e+01,6.040726733558364882e-05
1.526000000000000000e+03,2.423899667661475732e+01,1.365469806408667145e-05,5.099463501249067576e+01,4.055084163185751890e-05
1.145000000000000000e+03,2.370382916870832091e+01,7.046729275116950064e-06,5.344642189616077133e+01,4.380718416848424429e-05
1.565000000000000000e+03,2.352884299169600268e+01,3.445423898005703573e-05,5.372419003677450178e+01,5.753348295179307219e-05
7.450000000000000000e+02,2.346258177847077775e+01,1.306626088845985943e-05,4.949726732226578463e+01,6.215317784980646878e-05
2.150000000000000000e+02,2.308325623899099455e+01,1.240068132189214341e-05,5.361579538322354210e+01,5.165671613701911923e-05
1.723000000000000000e+03,2.292894750315160479e+01,3.157206559191418559e-05,4.978738547729354025e+01,4.051100626304184862e-05
1.983000000000000000e+03,2.284032138794146150e+01,1.806860646902259859e-05,4.763062333258291403e+01,5.845702555422615409e-05
2.062000000000000000e+03,2.270810294493970360e+01,8.088157794642550634e-06,4.834623138522341890e+01,4.708845651766268935e-05
5.330000000000000000e+02,2.254030382341756322e+01,7.528553801646237676e-05,5.045396606152655039e+01,5.865475981320372604e-05
2.200000000000000000e+02,2.252778677451098943e+01,2.253585052447612842e-05,4.945267190524356238e+01,6.528484072136561949e-05
2.980000000000000000e+02,2.203719013965492834e+01,5.329154009935119373e-06,4.967737433967620575e+01,4.415369423851582537e-05
1.543000000000000000e+03,2.169233563091763983e+01,7.448810516044705060e-05,5.537130100202346483e+01,1.043802653190501503e-04
1.813000000000000000e+03,2.148080698547606815e+01,2.186643644331505871e-05,4.418453432838960993e+01,5.108873428738314485e-05
7.160000000000000000e+02,2.147929327424106916e+01,1.788876492109133711e-05,4.346561097969355103e+01,4.562261644347884773e-05
1.438000000000000000e+03,2.117548210759208516e+01,1.068811523825441122e-05,4.594345213743115863e+01,5.656448209170355552e-05
6.380000000000000000e+02,2.117486146212053910e+01,1.389964053996415015e-05,4.773853765454612841e+01,4.775846712177806569e-05
1.731000000000000000e+03,2.116840539186361170e+01,3.487815068774787039e-05,4.824137371493542048e+01,6.773602417284816117e-05
2.019000000000000000e+03,2.102164159946871180e+01,1.299353598811086802e-05,3.781648040671473865e+01,3.764959430080854841e-05
1.608000000000000000e+03,2.100246465979156696e+01,1.312968002529194400e-05,3.911669740348296642e+01,4.532392757156913416e-05
1.667000000000000000e+03,2.078647385110764745e+01,1.138099649908457123e-05,5.083094506246428779e+01,4.617469148878505032e-05
1.177000000000000000e+03,2.078194415059355649e+01,3.646325020585055156e-05,4.844219880900738673e+01,6.412860346690626772e-05
1.571000000000000000e+03,2.071447711237023981e+01,2.487232282179692116e-05,4.531195829141908860e+01,5.660339663497356981e-05
1.260000000000000000e+02,2.063369093128371645e+01,8.387906494970009247e-06,4.466011150087426529e+01,3.847044834998135723e-05
1.536000000000000000e+03,2.062833942940854470e+01,1.978414873380294201e-05,4.842248690421054391e+01,4.319486149258810944e-05
2.067000000000000000e+03,2.048864361355548880e+01,2.054416062692675639e-05,4.226456791945444280e+01,3.057873779156725834e-05
1.173000000000000000e+03,2.036975639374812630e+01,1.808151889400705552e-05,4.258854500908569918e+01,5.349779073128927022e-05
2.040000000000000000e+02,1.996637244826111157e+01,2.200610837351938946e-05,3.458509911582257246e+01,3.943837573924932946e-05
1.298000000000000000e+03,1.990916520485522057e+01,1.320725384146396601e-05,4.377495240181715275e+01,5.470275993270220036e-05
1.241000000000000000e+03,1.979384697086655365e+01,2.093433317336913568e-05,4.230579749795582245e+01,4.565273192807916262e-05
1.679000000000000000e+03,1.975933009945789820e+01,5.642127572994626968e-06,3.789528130938378325e+01,1.896250155907069969e-05
2.510000000000000000e+02,1.973245262478735285e+01,2.992721257302994868e-05,3.761839292201334217e+01,3.532854356520124335e-05
1.458000000000000000e+03,1.969154449571409771e+01,5.724192828708562375e-05,3.836738875217275790e+01,4.471747758590079110e-05
9.030000000000000000e+02,1.965840684360579615e+01,5.420690629475133213e-05,4.030109133885784445e+01,6.034063564949044271e-05
6.870000000000000000e+02,1.957732674694629438e+01,4.255851307046349665e-05,3.978426007723552971e+01,5.644646614643199581e-05
6.970000000000000000e+02,1.957618627263966715e+01,1.073505852318785769e-04,3.994531527402727278e+01,4.600896206421315658e-05
1.466000000000000000e+03,1.922881369559524245e+01,4.099397506049919863e-05,3.846476874103825594e+01,6.041348202852299181e-05
2.003000000000000000e+03,1.898164415479103084e+01,7.362848793840461996e-06,4.272755796132907591e+01,4.551450977288775963e-05
3.100000000000000000e+02,1.851686741123150881e+01,1.103361897832655210e-05,4.631484615628731660e+01,4.196486538379653688e-05
1.540000000000000000e+03,1.841884496757141321e+01,3.511713087166645937e-05,4.228124651859008054e+01,4.237698309779348876e-05
8.750000000000000000e+02,1.807303703511149706e+01,1.766691404213692468e-05,4.203713239589476558e+01,5.589720226141635942e-05
1.333000000000000000e+03,1.783301492742544525e+01,7.764495669148690926e-06,4.258327022465768863e+01,3.570456501961321178e-05
1.842000000000000000e+03,1.771889187728832482e+01,3.225504236928516868e-03,6.372101863655550460e+02,4.220095190706401288e-03
7.400000000000000000e+01,1.764347051699035163e+01,1.251311643662006243e-05,3.598663155481704479e+01,4.564179926730128179e-05
7.660000000000000000e+02,1.764336540109775697e+01,1.080491844002634660e-05,3.527529598230591290e+01,3.937724557735151036e-05
1.071000000000000000e+03,1.757757440772344637e+01,7.997727399440119660e-06,3.485991554567888784e+01,3.851046197921056502e-05
2.860000000000000000e+02,1.722657228609557833e+01,1.322895080760889795e-05,3.927078840323413544e+01,6.032498035200723618e-05
1.193000000000000000e+03,1.712322694326718064e+01,1.598047137407808231e-05,4.080116394048376094e+01,4.985980127958135344e-05
1.643000000000000000e+03,1.706516958720733257e+01,1.635216830333904761e-05,3.517692640313947550e+01,4.147668590553335344e-05
1.178000000000000000e+03,1.695097438013865343e+01,1.255451486631628397e-05,3.431858549126644675e+01,4.458850475982511097e-05
1.459000000000000000e+03,1.672909438155333461e+01,7.422968295765244073e-06,3.122369917926997829e+01,2.549425497325036519e-05
7.410000000000000000e+02,1.659905540963644199e+01,2.141747034292923465e-05,3.621317374239809794e+01,3.587346641619041960e-05
1.134000000000000000e+03,1.625703792380910784e+01,1.569613018481685884e-05,3.514851499531481238e+01,4.396469826546010255e-05
1.360000000000000000e+02,1.614371384538955567e+01,1.769289787022001315e-05,2.829095515674265116e+01,3.054580190455699867e-05
1.183000000000000000e+03,1.612401311462556919e+01,9.711252532721707497e-06,3.256302436028614977e+01,4.122889469438715897e-05
2.044000000000000000e+03,1.602783879686867152e+01,1.922482269775779612e-05,3.005818358509629107e+01,4.023663737925526994e-05
7.420000000000000000e+02,1.598642878215096275e+01,1.765402224241896761e-04,3.665271982933776940e+01,7.308868788214558829e-05
3.800000000000000000e+01,1.586929553216831934e+01,2.346980637608694496e-05,3.183585343517438560e+01,3.337963074796658611e-05
4.130000000000000000e+02,1.583836419497986725e+01,2.869646425769095005e-05,3.240775853012623742e+01,4.729379151459558843e-05
3.250000000000000000e+02,1.567323652194955486e+01,1.328814609074606153e-05,3.307579360463962104e+01,4.048673545605324079e-05
1.366000000000000000e+03,1.565318847310183692e+01,2.387647350125664624e-05,3.368397334982936542e+01,4.509626066283903392e-05
7.120000000000000000e+02,1.546714043605200750e+01,1.134628746510745275e-05,3.072008123678186209e+01,3.397634925717147052e-05
3.480000000000000000e+02,1.544638058312210482e+01,1.001437979031729765e-05,3.432915667578647856e+01,4.585247495635212130e-05
2.180000000000000000e+02,1.527293123272119502e+01,6.280597447872514459e-06,2.979070532816833605e+01,2.464475908076807734e-05
8.780000000000000000e+02,1.468235574561959567e+01,1.485519793917417869e-05,3.174894287570358387e+01,5.104871102088925694e-05
1.354000000000000000e+03,1.446543511011159744e+01,7.830954813629002805e-06,3.199603243565201183e+01,3.654334719070772810e-05
1.190000000000000000e+02,1.443848540245430456e+01,8.126060989078599418e-06,3.061337906185485025e+01,4.377455303064869193e-05
9.200000000000000000e+01,1.422268364592094869e+01,1.893747495456746797e-05,2.943860381461844611e+01,3.075953604193982772e-05
6.100000000000000000e+01,1.391333671983496778e+01,8.594809752730249206e-06,2.808159211001651911e+01,2.718760443825007776e-05
1.474000000000000000e+03,1.377044323021326200e+01,1.340047478648044606e-05,3.135732150314330724e+01,4.820881060581230819e-05
1.839000000000000000e+03,1.357949806177779273e+01,1.505596194295043592e-05,3.018861488102479385e+01,2.888267476699563448e-05
1.583000000000000000e+03,1.342866262063529703e+01,7.791766871853203881e-06,2.721638789832180194e+01,1.902725982378890063e-05
1.350000000000000000e+03,1.341102009774896686e+01,8.627853167690613129e-06,2.602502409327701827e+01,2.378616970490554980e-05
1.602000000000000000e+03,1.329561485291370460e+01,1.001614501266617524e-05,2.988880986825144959e+01,3.210813714200339952e-05
1.690000000000000000e+03,1.308276682709388794e+01,6.102198426436883292e-06,2.735208609257529844e+01,2.355425070770134917e-05
1.961000000000000000e+03,1.296985701382627632e+01,1.285864795404654711e-05,2.683571877337089262e+01,3.333880047597257356e-05
1.099000000000000000e+03,1.296871998068449550e+01,7.238225684704276553e-06,2.271725111896920524e+01,2.316878585999957135e-05
9.750000000000000000e+02,1.296857568168566033e+01,1.156368938487497525e-05,2.785160098090690184e+01,3.272914941048953936e-05
2.011000000000000000e+03,1.271168568575359004e+01,2.436369644034123229e-05,2.173354767372280349e+01,3.580965493623803697e-05
4.660000000000000000e+02,1.239357445399020285e+01,2.069704421778665389e-05,2.601188043304089703e+01,2.303883874295575693e-05
3.430000000000000000e+02,1.218194065087085143e+01,2.894478206966186256e-06,2.551506577395113951e+01,2.062503516850755102e-05
1.310000000000000000e+03,1.188719831261709992e+01,7.051337844706127531e-06,3.886712782440226732e+01,6.798222223901236342e-05
7.020000000000000000e+02,1.163141698011321523e+01,1.079618291106978071e-05,2.631332278844536532e+01,1.802408360424990200e-05
3.370000000000000000e+02,1.141324635686177835e+01,4.331801657836637470e-06,2.326357921400540363e+01,2.631013626245650198e-05
3.530000000000000000e+02,1.124113435515173265e+01,3.505189970847020153e-05,2.188324419463950221e+01,2.466889151785306962e-05
1.909000000000000000e+03,1.105102481323830865e+01,1.016566557587582284e-05,2.216295437496434673e+01,3.418019116470869792e-05
9.910000000000000000e+02,1.076791342319409495e+01,2.677537280166497277e-05,3.274378833996561866e+01,4.824445696333322885e-05
1.552000000000000000e+03,1.071631852254247619e+01,4.278303044508299183e-06,2.314988375897961603e+01,2.807369659809538944e-05
3.000000000000000000e+01,1.068798745465199929e+01,3.781755830796629422e-06,2.115582342125492588e+01,2.659688420024100344e-05
9.130000000000000000e+02,1.066742319744837175e+01,3.697511849201976552e-06,1.866671212012353820e+01,1.712581738001468876e-05
6.930000000000000000e+02,1.062427245031765111e+01,3.219584836263688663e-06,2.041743690856015192e+01,1.570724751229416578e-05
4.060000000000000000e+02,1.028742102560874372e+01,3.149506059945766642e-06,1.792028658342744762e+01,1.743412330454996358e-05
2.035000000000000000e+03,1.020146217449200421e+01,7.124388078746239502e-06,1.964086636812051978e+01,2.380313731800317559e-05
2.007000000000000000e+03,1.014899360108757520e+01,9.128279066760215879e-06,2.203397960913441267e+01,2.032871222193879376e-05
1.913000000000000000e+03,1.011674122477264781e+01,1.078913909893630251e-04,1.910906670485016434e+01,2.723129112393163687e-05
1.919000000000000000e+03,1.003172849421397572e+01,4.750951200270421119e-06,1.880926249599510669e+01,2.283376951196598842e-05
1.030000000000000000e+03,9.899434735504190286e+00,7.548367392913909477e-06,1.946883115268042985e+01,2.214346502101242079e-05
4.840000000000000000e+02,9.668150400776486464e+00,7.175300786856450929e-06,1.940711089470749329e+01,1.615935316261304767e-05
1.668000000000000000e+03,9.378030693611412616e+00,1.013227696934806294e-05,1.935602192194241056e+01,2.159460398872092537e-05
5.610000000000000000e+02,9.336202022327405814e+00,1.522065987499455913e-06,1.840613189395329741e+01,1.325903042452842728e-05
1.809000000000000000e+03,9.071339139504889459e+00,1.090611621390623538e-05,1.777608635459801789e+01,2.327138742267627447e-05
1.546000000000000000e+03,9.015074878725910068e+00,5.269769284996340181e-06,1.717949074613690996e+01,1.693822743956098907e-05
7.670000000000000000e+02,8.820363145294914275e+00,5.971031556076618999e-06,1.823682033719195772e+01,1.358782659471733470e-05
7.400000000000000000e+02,8.456040405274809046e+00,4.294595771935162855e-06,1.661466271301317832e+01,1.983983152375670819e-05
9.770000000000000000e+02,8.432137738552311745e+00,5.146620162268696707e-06,1.371385154423860975e+01,1.588680637512373121e-05
1.639000000000000000e+03,8.213112974450632819e+00,6.588590802928805716e-06,1.935452868761276690e+01,2.431362813915560094e-05
2.027000000000000000e+03,7.933183550405389362e+00,1.075744610949952920e-05,1.480699767657884180e+01,2.473837284584287299e-05
6.460000000000000000e+02,7.737649845868692644e+00,1.169750604570540230e-05,1.839306881052954523e+01,2.798537081649534887e-05
1.450000000000000000e+02,7.709492410307550614e+00,6.483052385435115945e-06,1.671727844167886445e+01,2.645251334620520847e-05
2.031000000000000000e+03,7.444514609969909102e+00,7.213976619033286574e-06,1.361106995604388104e+01,2.106498057583895168e-05
8.200000000000000000e+02,6.841916264063615749e+00,2.125916274214148288e-04,6.926803789507052045e+01,2.006768448814781754e-04
1.471000000000000000e+03,6.749534785155784533e+00,1.265612102621127339e-05,1.150600119138512412e+01,1.870508671853173018e-05
1.764000000000000000e+03,6.641663442771739589e+00,4.303267794932282377e-06,1.406024734569789381e+01,1.709559061714477192e-05
9.060000000000000000e+02,6.629946036336961335e+00,7.717438100008726704e-06,1.346411391735042962e+01,1.931706909992862755e-05
1.209000000000000000e+03,6.581378661838736654e+00,3.067139229524429157e-06,1.291812626131207509e+01,1.220912147958286054e-05
1.592000000000000000e+03,6.345531786510589356e+00,4.782993916073798745e-06,1.258947088110122081e+01,1.578623876379674952e-05
4.280000000000000000e+02,6.169210066279101845e+00,6.511815790029684224e-06,1.209230952640310797e+01,1.441709995060156325e-05
1.210000000000000000e+02,5.808536924572725191e+00,1.669826874328552176e-06,1.157942780032534991e+01,1.027915296735869214e-05
2.930000000000000000e+02,5.693281108326100792e+00,5.519126770194291291e-06,1.159909745895503086e+01,1.516554294590081375e-05
5.570000000000000000e+02,5.546653347293703185e+00,1.625045198178301389e-04,5.465318630763992047e+01,1.375859997259711606e-04
6.530000000000000000e+02,5.456330920186363009e+00,2.408831331402529077e-06,1.280725662809745558e+01,1.095982819742919179e-05
1.078000000000000000e+03,5.170294816799183124e+00,9.830243161433118118e-06,1.049199199189595788e+01,1.705453959717884540e-05
2.590000000000000000e+02,4.930833426355169635e+00,3.691190620060839163e-04,3.035374883648456716e+02,4.054690258706675774e-04
7.930000000000000000e+02,4.866438415411730389e+00,1.827140294338690673e-06,1.264479607040718356e+01,7.743126861880098103e-06
1.810000000000000000e+02,4.845652557253811388e+00,3.506903347882840637e-06,9.152724766401998835e+00,1.301418301453312196e-05
1.322000000000000000e+03,4.569009526550744660e+00,1.490453056426753758e-06,9.414349066970233437e+00,7.222964713007520306e-06
2.300000000000000000e+01,4.275069862948397414e+00,3.747339287903424164e-06,9.239383084946876323e+00,9.420364986416662585e-06
1.478000000000000000e+03,3.879178144729844124e+00,5.594635776225789283e-06,7.403806774959206471e+00,1.079552829438169820e-05
1.635000000000000000e+03,3.795079004090134323e+00,2.675651131826036009e-03,1.133647759316597558e+03,2.968050634943445332e-03
1.916000000000000000e+03,3.618978733064372122e+00,2.750359359801251263e-06,8.324892000871940922e+00,1.149813729698479677e-05
9.350000000000000000e+02,3.474991252837006606e+00,1.137938076664092670e-06,6.383886463264476951e+00,4.640009563217084068e-06
1.316000000000000000e+03,3.465534595656805550e+00,2.033463755122407287e-06,6.152754669488631478e+00,6.141262984698541666e-06
1.974000000000000000e+03,3.454374336311622162e+00,2.742929235027592405e-06,6.658471483133080682e+00,9.981909958937056461e-06
1.561000000000000000e+03,3.384056026382356919e+00,5.413921796180863166e-07,6.210859563598777555e+00,7.560182617682054641e-06
2.030000000000000000e+02,3.277191584099330424e+00,2.945292463436301026e-06,5.433599442141999525e+00,4.704628609777742838e-06
9.930000000000000000e+02,3.211491079699369422e+00,2.954500753118846264e-06,7.725789237032261170e+00,6.999883406976686419e-06
1.081000000000000000e+03,2.952204231647120203e+00,2.710440226589870716e-06,5.480533361655353097e+00,5.020497611882989873e-06
3.960000000000000000e+02,2.904964669965859780e+00,3.994656793042429916e-06,4.669606250079467280e+00,3.691812199384118276e-06
2.053000000000000000e+03,2.890011908335139879e+00,1.638112416604024226e-03,2.766242640464093938e+02,1.676055292012898967e-03
1.925000000000000000e+03,2.730112733648057066e+00,1.694999198660646444e-06,5.561035828753148280e+00,7.275136256356135253e-06
1.606000000000000000e+03,2.235652391450848597e+00,8.510609608713545856e-07,4.495741806043885624e+00,5.231227951044402583e-06
1.245000000000000000e+03,2.117793295770272088e+00,8.428562922731615220e-07,4.205460543015258956e+00,5.580368888417150786e-06
9.680000000000000000e+02,1.974818176847083384e+00,9.756964740585187034e-07,4.133424490345332103e+00,3.638185333376709652e-06
1.669000000000000000e+03,1.891623775005874197e+00,2.113789801129039272e-06,3.692399767378369724e+00,3.597190735835315522e-06
1.156000000000000000e+03,1.767841049679392595e+00,1.510666340140036498e-03,5.241232278353103311e+02,1.536777536969043904e-03
1.532000000000000000e+03,1.703476530898535346e+00,1.732669907728566228e-06,2.977650865370394584e+00,3.062527924350077845e-06
3.440000000000000000e+02,1.532324091458385107e+00,4.891573668239303273e-04,1.316270249866612687e+02,5.029639467546457524e-04
5.590000000000000000e+02,1.439285229757451656e+00,2.976784250564157893e-07,2.466752290349324195e+00,1.739962299273240970e-06
2.910000000000000000e+02,1.281846224960258684e+00,6.368893816831420365e-07,3.226606564813330635e+00,3.320450002002811214e-06
1.188000000000000000e+03,1.252054981760506003e+00,8.038363740219378943e-07,2.327375100683917175e+00,2.682912970870931566e-06
1.182000000000000000e+03,1.155942703194826837e+00,5.282452317870502501e-07,2.133114728001225480e+00,2.788778979593026789e-06
6.640000000000000000e+02,1.141194779833761386e+00,3.774362638863763983e-06,2.148798591025902205e+00,3.017707506801717366e-06
1.634000000000000000e+03,1.109924820756233332e+00,5.447588128618628472e-07,1.920657746570569424e+00,1.904606848522669099e-06
1.065000000000000000e+03,1.061960226046752886e+00,7.310809192847094830e-07,1.949672011487611600e+00,2.205931905301720689e-06
7.180000000000000000e+02,1.020750204086950941e+00,7.448476025206069230e-07,1.764074568277777644e+00,2.161133418347295619e-06
1.300000000000000000e+03,1.007797734874841478e+00,1.638694067404589364e-06,2.018703083000483733e+00,1.598687230773318728e-06
1.130000000000000000e+03,9.313444483676602825e-01,4.406254636449065358e-07,1.901479609734481269e+00,1.876793395361734148e-06
2.460000000000000000e+02,9.083329337668519798e-01,1.745743999025698306e-07,1.483243670861584373e+00,9.398804471792775967e-07
6.790000000000000000e+02,7.933149056004067390e-01,2.760994180496513215e-07,1.519272012654059090e+00,1.257459101584755978e-06
1.918000000000000000e+03,6.652138029209825332e-01,3.385309075660602164e-07,1.204097095785648719e+00,1.232138752439258786e-06
1.980000000000000000e+02,3.891874911471925325e-01,2.102825766988236500e-07,7.762677520396532582e-01,9.445621062524310635e-07
1.036000000000000000e+03,3.836783704312486942e-01,2.258491834653590823e-07,7.830395673561347802e-01,7.208545084844212070e-07
1.025000000000000000e+03,2.718456038072399328e-01,1.917022021095913956e-07,4.084873374296009163e-01,4.086570300085006977e-07
9.080000000000000000e+02,1.332963898742836883e-01,7.156896412087513900e-06,2.068707119038395714e-01,2.848495327940803213e-07
1.219000000000000000e+03,1.306000945395416890e-01,5.780418439197273348e-08,1.294489050871349967e-01,5.060529749746924136e-06
1.250000000000000000e+03,1.147528753911014471e-01,2.671668677100504945e-08,1.157001067232122787e-01,5.590100365861668415e-06
2.012000000000000000e+03,1.047799256299552784e-01,7.341227781874901169e-06,2.167859472806629162e-01,1.781642874993098175e-05
1.954000000000000000e+03,1.030662482611067743e-01,6.654159207183741462e-06,1.698168521086796390e-01,1.475400832724405172e-07
1.330000000000000000e+02,7.912521424969716499e-02,4.890266786260815033e-08,1.922136047160271088e-01,1.404074512225504425e-05
1.356000000000000000e+03,4.143448965578484799e-02,2.556410820318075883e-08,1.095241294899467061e-01,4.683828011402495675e-06
1.343000000000000000e+03,2.719221578243550055e-02,8.710393894529956920e-09,1.128734831561907515e-01,5.025649331737546437e-06
1.826000000000000000e+03,1.024280211808569971e-02,1.191809624017524134e-08,3.535214090654508617e-02,2.044740343009496938e-06
0.000000000000000000e+00,0.000000000000000000e+00,0.000000000000000000e+00,0.000000000000000000e+00,0.000000000000000000e+00
0.000000000000000000e+00,0.000000000000000000e+00,0.000000000000000000e+00,0.000000000000000000e+00,0.000000000000000000e+00
0.000000000000000000e+00,0.000000000000000000e+00,0.000000000000000000e+00,0.000000000000000000e+00,0.000000000000000000e+00
