1.050000000000000000e+02,6.434005560194003692e+01,3.189967035655830922e-05,1.438119111661390264e+02,1.201860216466533055e-04
2.720000000000000000e+02,6.411143013099743371e+01,7.252036354656709444e-05,1.403755008672399640e+02,1.623306388041295743e-04
5.990000000000000000e+02,5.338483000229739872e+01,5.218931052166195006e-05,1.258681819504733710e+02,1.176595711155885028e-04
4.810000000000000000e+02,5.039052457680214303e+01,5.233632084210592300e-05,7.485367293083427853e+01,7.539877561805186632e-05
2.610000000000000000e+02,4.954260788967117435e+01,2.262372496358224191e-05,8.906925037284588598e+01,8.552991109407190524e-05
1.400000000000000000e+02,4.781409846129409402e+01,1.890088449625256176e-05,7.811847370619634034e+01,4.692779269084488934e-05
7.910000000000000000e+02,4.653375759754560193e+01,8.327949671943370537e-05,1.004364765524583873e+02,7.922022446782159906e-05
1.460000000000000000e+02,4.614109154997987616e+01,3.080517987646466926e-05,8.601467767844316370e+01,8.973600326694327115e-05
4.160000000000000000e+02,4.589416402570304143e+01,4.045061322133861059e-05,1.028742545401067758e+02,1.059165053928509350e-04
3.520000000000000000e+02,4.386982771477693177e+01,2.978851735757352651e-05,7.858469592403173465e+01,8.216957490453153832e-05
4.190000000000000000e+02,4.369296206222784207e+01,3.966710447045765315e-05,8.101987532492466926e+01,8.667741492944412631e-05
2.600000000000000000e+01,4.324892095443845363e+01,1.375765807809139505e-05,9.875847555536756772e+01,6.977629473188172676e-05
1.300000000000000000e+02,4.226921762336461086e+01,9.032830660997318600e-06,9.923695949038571484e+01,1.081630318442688813e-04
3.650000000000000000e+02,4.041369349605211880e+01,1.480736062127682570e-05,8.125337948692060763e+01,5.570323320889492919e-05
4.760000000000000000e+02,4.039667529294853665e+01,3.847335687593050923e-05,6.240504042500510451e+01,4.775577596339259338e-05
2.500000000000000000e+02,3.873104665139656078e+01,1.591857989071844136e-04,5.701232820248039701e+01,7.629905517998409931e-05
1.350000000000000000e+02,3.813485527965319477e+01,2.893424402974365198e-05,7.851493838994690577e+01,8.154889916643794740e-05
2.060000000000000000e+02,3.799976549936192782e+01,2.507505613580821054e-05,6.945418370250011719e+01,5.338964633604281914e-05
4.670000000000000000e+02,3.784211420721177177e+01,1.562768628341334933e-05,7.506937703644810256e+01,4.713729472461791991e-05
1.220000000000000000e+02,3.737750563334282106e+01,1.130188283057816344e-05,5.992380770736695439e+01,6.000253169519845442e-05
5.120000000000000000e+02,3.687496262946420700e+01,2.389227355786434337e-05,6.637145091559236221e+01,3.868203544851164582e-05
2.890000000000000000e+02,3.674727310301801708e+01,2.846413184104875323e-05,7.117777550317005364e+01,6.466565680559609500e-05
3.040000000000000000e+02,3.671047389702103914e+01,1.494458446561408947e-05,5.289635331687249220e+01,6.511532836942830358e-05
6.060000000000000000e+02,3.665217615469109091e+01,3.700767935684577578e-05,7.879501989852296617e+01,7.371691841359601170e-05
4.350000000000000000e+02,3.601145755473449128e+01,1.034891669667691372e-05,6.664422626885263412e+01,6.476650446294813580e-05
4.540000000000000000e+02,3.576743993139469069e+01,9.909726926533395086e-05,6.737578216437280787e+01,7.218134495608238116e-05
2.280000000000000000e+02,3.570763381380920976e+01,2.324717433778390665e-04,7.403208753991822277e+01,9.690306063249875428e-05
7.770000000000000000e+02,3.460910846025055321e+01,1.682853642923288050e-05,8.253195653949343580e+01,6.870439075068893804e-05
2.100000000000000000e+01,3.442415235404877194e+01,2.729587813264583437e-05,9.085717613026537265e+01,6.504961740455745840e-05
3.020000000000000000e+02,3.418180946361361805e+01,2.854181741191611166e-05,6.739015514209197022e+01,7.567166524288410925e-05
3.200000000000000000e+02,3.296555627936156441e+01,6.849072423972241159e-06,6.865624114762253782e+01,4.282345169005896527e-05
3.580000000000000000e+02,3.232922623074136226e+01,1.761204227396994889e-05,6.188725989453359233e+01,4.775816407838403703e-05
3.870000000000000000e+02,3.170998394516482577e+01,4.489846643006486924e-05,8.538112577281731319e+01,7.115685006981830978e-05
5.050000000000000000e+02,3.115642046222376038e+01,6.937028452010876866e-06,6.839010392226738588e+01,5.674449161861063888e-05
7.380000000000000000e+02,3.090016507137888624e+01,1.284078488847525089e-05,8.164668452207135374e+01,6.639119180822027565e-05
1.000000000000000000e+01,3.057873132773787361e+01,1.768957734902168225e-05,5.863466881910686368e+01,6.639688526970369991e-05
1.170000000000000000e+02,3.034649213086624187e+01,2.188333103068788085e-05,5.680648948127949893e+01,5.614204165472949632e-05
5.060000000000000000e+02,3.030979399936329699e+01,2.438439374556915820e-05,6.208559680230138866e+01,7.230483677652405224e-05
6.000000000000000000e+00,2.962013389644805272e+01,4.022305874887520123e-05,7.601474117051976975e+01,6.863445852559519917e-05
6.270000000000000000e+02,2.864082910036340834e+01,3.921712015928934572e-05,6.268864870770343600e+01,8.230493482890944917e-05
3.280000000000000000e+02,2.849964898801536961e+01,5.341377498183911730e-05,6.849790331911950148e+01,5.605803197073962478e-05
1.510000000000000000e+02,2.843343669428454490e+01,1.028940214800318724e-05,4.923976022885216253e+01,4.036622087228909254e-05
3.050000000000000000e+02,2.835908949374995558e+01,4.445641189234330123e-05,5.755607299344809746e+01,6.262314926760291663e-05
4.400000000000000000e+02,2.810784760599817744e+01,1.703124762542284219e-05,5.184560344585023017e+01,3.120368576398758033e-05
5.100000000000000000e+01,2.793851452389329637e+01,3.185236277192870716e-05,5.942063785380480567e+01,6.362987762176144750e-05
7.960000000000000000e+02,2.792335472948417774e+01,1.741018483467387021e-05,6.225660678532143777e+01,4.249576282743379408e-05
1.880000000000000000e+02,2.761063416531910164e+01,1.024748579385589766e-04,8.720585729990540358e+01,1.112887164081645310e-04
2.020000000000000000e+02,2.732966986684330735e+01,1.542020266635223136e-05,4.293877105774672032e+01,3.726812506123133232e-05
7.800000000000000000e+02,2.727381584719411833e+01,4.866799120666699717e-05,5.430527017277122326e+01,5.284489675460209834e-05
3.560000000000000000e+02,2.725226044477861009e+01,1.395071528057462509e-05,4.532435803944250097e+01,6.303582770931654138e-05
5.310000000000000000e+02,2.683616254272182644e+01,1.689277397939538568e-05,5.776255447425180733e+01,5.470746749026909444e-05
3.590000000000000000e+02,2.644542619740348854e+01,1.395803313373840927e-05,4.879535653431939579e+01,3.217420714878745634e-05
6.200000000000000000e+01,2.630519189237676869e+01,3.804418501623098395e-05,5.975249212582199476e+01,5.705662183753908617e-05
5.380000000000000000e+02,2.590760529106519172e+01,2.309920595457736397e-05,5.013119369581042406e+01,4.164656758736488547e-05
6.160000000000000000e+02,2.559995737281482775e+01,2.207079216240637404e-05,4.527357156049836107e+01,4.039728663643082435e-05
3.930000000000000000e+02,2.551120149497022993e+01,5.190067018148274046e-06,5.511213976567990613e+01,3.672658849348987441e-05
2.840000000000000000e+02,2.544229999467322756e+01,8.352524806668508363e-05,5.902751492248766141e+01,5.737663725435907794e-05
6.830000000000000000e+02,2.535897280647713359e+01,4.057786002081790870e-05,5.083389043118680206e+01,5.723273607827941402e-05
4.690000000000000000e+02,2.514336340002997616e+01,1.636148518018200874e-05,5.624780819054155501e+01,6.049507386436954568e-05
2.730000000000000000e+02,2.497191947390582456e+01,8.727942473688456821e-05,7.627567496212449782e+01,6.466191477225098671e-05
7.100000000000000000e+02,2.471446514047660514e+01,6.011647516442282658e-06,5.321047121556422610e+01,5.606084223435744708e-05
6.470000000000000000e+02,2.465415776103034773e+01,3.967578674867202438e-05,4.353020064556972102e+01,3.774244518284813101e-05
1.800000000000000000e+01,2.462487289395000190e+01,1.324279476361393735e-05,5.889499668853738257e+01,6.682802445343170221e-05
7.900000000000000000e+01,2.436336079250817477e+01,1.503161437899860066e-05,4.055670385808150513e+01,4.551164997225804794e-05
3.810000000000000000e+02,2.396782293359229499e+01,2.403031143932428298e-05,5.161897938851640077e+01,4.470657565928184149e-05
4.330000000000000000e+02,2.390805888860154127e+01,2.057094863318968919e-05,4.315535561907752538e+01,4.107096705437575103e-05
5.660000000000000000e+02,2.383282626742520094e+01,2.653676842257121423e-05,5.140657343985943584e+01,4.746432789483154442e-05
7.430000000000000000e+02,2.370751663642474227e+01,9.812081250563861872e-05,4.834981471923908458e+01,5.876860551600296986e-05
5.150000000000000000e+02,2.366455423456713092e+01,1.208721534134469215e-05,4.248530509988175652e+01,3.468288844699657939e-05
7.550000000000000000e+02,2.356939516212350583e+01,2.729882793938901944e-05,3.923106785700666421e+01,3.857821070823155222e-05
4.180000000000000000e+02,2.322466755455472764e+01,3.745513415086625245e-06,4.694337351623321553e+01,3.032982807508352677e-05
4.000000000000000000e+01,2.321457467761709381e+01,1.579346004559149864e-05,4.460672101417679869e+01,2.805371520000146673e-05
3.510000000000000000e+02,2.309102631437759356e+01,1.361546928431923685e-05,5.059967135760686574e+01,5.682866682539305849e-05
1.270000000000000000e+02,2.290572794537910539e+01,4.420897874059207615e-06,4.741061831931965287e+01,3.019746221550805796e-05
5.740000000000000000e+02,2.268901214120815979e+01,1.852091447068543703e-05,4.525993748498614622e+01,3.484388198486582279e-05
5.820000000000000000e+02,2.257475632928829867e+01,9.759918408023675633e-06,3.580486805511838355e+01,3.520044997111467834e-05
3.060000000000000000e+02,2.226686248802403512e+01,2.632920599816355634e-05,4.396336626676071546e+01,4.706369773530555406e-05
6.610000000000000000e+02,2.197621141459815775e+01,1.204630045406116290e-05,5.720579573507887972e+01,4.449706903834171185e-05
4.090000000000000000e+02,2.189913180295745221e+01,2.874004106438531698e-05,5.741268900902707628e+01,5.226484415142881163e-05
7.990000000000000000e+02,2.189562453575221213e+01,1.803523544795815697e-05,3.310847989421841930e+01,2.588880934953676830e-05
6.280000000000000000e+02,2.179161013927420143e+01,2.213940622144881879e-05,5.795305864439489341e+01,7.331530526321196426e-05
1.660000000000000000e+02,2.163555035497882884e+01,1.490405851220132831e-05,3.420631293242823290e+01,1.999609427198114785e-05
3.640000000000000000e+02,2.130833372406256743e+01,4.201770463256843357e-05,3.763863401861438263e+01,4.422940165154829010e-05
8.100000000000000000e+01,2.121091077207372422e+01,7.571041102391434503e-06,5.193863573817464641e+01,3.431716129377701037e-05
7.710000000000000000e+02,2.108521575811215953e+01,3.282549562847608422e-05,4.144735915250807778e+01,4.040951836828159322e-05
1.160000000000000000e+02,2.106385573324549654e+01,1.425301384454580557e-05,4.453582748874399755e+01,5.098527425319680648e-05
7.640000000000000000e+02,2.010486990746356639e+01,1.400995973279839351e-05,4.608160488603228089e+01,4.800080704574314906e-05
1.440000000000000000e+02,2.002493305293887715e+01,5.740661521406945219e-05,5.398362432259995813e+01,3.995467513277748696e-05
6.330000000000000000e+02,1.983469427802717178e+01,1.589998616286266897e-05,4.009151505195332987e+01,3.317931253295774042e-05
2.770000000000000000e+02,1.955234055637442125e+01,1.118080181372499696e-05,4.879469770947225982e+01,4.959351642356632918e-05
2.500000000000000000e+01,1.944739852147156611e+01,6.690232270500865275e-06,3.677561116450927869e+01,2.480356845997493665e-05
5.750000000000000000e+02,1.937457115219643455e+01,1.466046413594285661e-05,4.073652758691675047e+01,3.935848064055924529e-05
5.690000000000000000e+02,1.916947276337377559e+01,7.392039651250755277e-06,3.933628017923543041e+01,3.178519926779488640e-05
7.580000000000000000e+02,1.884224891723564710e+01,2.214649616914055456e-05,6.474349996184328404e+01,5.869567330999326296e-05
5.710000000000000000e+02,1.870537220708745707e+01,8.763534568776333719e-06,3.888879125672785619e+01,3.581236766859482421e-05
6.540000000000000000e+02,1.805953643182524715e+01,8.958272851266674074e-06,3.976959262691126185e+01,3.990596331364087680e-05
4.260000000000000000e+02,1.773781934089099366e+01,1.375641222508772540e-05,4.224277790215049322e+01,3.363651249136994021e-05
1.480000000000000000e+02,1.759447823820741519e+01,1.016268122951877603e-05,3.287661703749540010e+01,2.758825903293730912e-05
2.420000000000000000e+02,1.741519618614238496e+01,1.112805891227496664e-05,2.912083133657723266e+01,2.335990858689008951e-05
6.850000000000000000e+02,1.711614770489201831e+01,1.343066079436350915e-05,4.322338446288389235e+01,2.944033883196486194e-05
3.980000000000000000e+02,1.707090486864598944e+01,6.543070499132779601e-05,3.163964211011865757e+01,4.019500363295552619e-05
9.800000000000000000e+01,1.672362379845593239e+01,1.640668290170778633e-05,3.290995124577919739e+01,2.347293954484098731e-05
7.140000000000000000e+02,1.663788142532741077e+01,6.468410056817260409e-06,5.045551657067832707e+01,4.004011236893658012e-05
5.180000000000000000e+02,1.662961136547791696e+01,1.803733104079796774e-05,4.082153499772557126e+01,4.496464447827550715e-05
5.900000000000000000e+01,1.662346225492175833e+01,1.122071181855947826e-05,4.420688644905352049e+01,3.275775860942956524e-05
2.070000000000000000e+02,1.661291264091085651e+01,7.513759435265097892e-06,5.452890101792960564e+01,5.330134837515116547e-05
3.110000000000000000e+02,1.657703902958731845e+01,1.034534440359821882e-05,3.676623943087470536e+01,2.905199885046631420e-05
4.900000000000000000e+01,1.655526394543933222e+01,4.331674833332957684e-06,3.950861029011047520e+01,3.126378048606963557e-05
3.460000000000000000e+02,1.655315712469739253e+01,2.396711274167596616e-05,3.021480211600766097e+01,2.566569489069705270e-05
4.750000000000000000e+02,1.649453767709744056e+01,4.018492897675469332e-05,4.065044465417718555e+01,5.048825761541766093e-05
5.320000000000000000e+02,1.642061090320252958e+01,2.758045136671391623e-05,3.482990613906898147e+01,3.653589985872053239e-05
2.260000000000000000e+02,1.615138081927410951e+01,1.990831972334756908e-05,3.079772236517801076e+01,4.014621578229589247e-05
2.620000000000000000e+02,1.613042614095481753e+01,1.061968057948686533e-05,3.911262526868029710e+01,3.293868008619770703e-05
9.500000000000000000e+01,1.607144955835084588e+01,8.899908389775498425e-06,3.254577683018436574e+01,2.948762919201069842e-05
1.790000000000000000e+02,1.603786759907520576e+01,4.228373038378450787e-05,3.297606136987778314e+01,4.535490728365360822e-05
1.520000000000000000e+02,1.600667949413731606e+01,2.455736838076057015e-05,4.053899047930242006e+01,4.971559742845260281e-05
4.800000000000000000e+01,1.591457270218868914e+01,8.395449629127489096e-06,3.213974490285460206e+01,3.441934763263383061e-05
6.150000000000000000e+02,1.582053289048157119e+01,9.808420654890233893e-06,2.601098161184786406e+01,3.358712033230589611e-05
4.590000000000000000e+02,1.578578533591430855e+01,1.875009717393393013e-05,3.075328654468152223e+01,3.191379372325098805e-05
5.000000000000000000e+02,1.576641163223893827e+01,2.090708373353169982e-05,3.964029194433459224e+01,3.422994320633345833e-05
7.310000000000000000e+02,1.552871577058346730e+01,1.181482626274537006e-05,3.845487926855836491e+01,2.359827244600932929e-05
6.070000000000000000e+02,1.552204024897750756e+01,1.052236718693130893e-05,2.807185756362917317e+01,2.349433585457105472e-05
6.000000000000000000e+02,1.542839910097605127e+01,1.212247786225839665e-05,3.417601580589989396e+01,3.600313745288541200e-05
1.500000000000000000e+02,1.535732831154529521e+01,5.233810624570299845e-06,2.863866165964165589e+01,2.045897859660027868e-05
1.840000000000000000e+02,1.535025788746554554e+01,5.264315984475905570e-06,3.986614528269195290e+01,3.350226131148597094e-05
1.040000000000000000e+02,1.526446482549032879e+01,1.363745784596636354e-05,3.190018836643269395e+01,3.155032085531670231e-05
2.630000000000000000e+02,1.524049465464306863e+01,5.152859433094915918e-05,2.901934118574479626e+01,3.506490036369423334e-05
7.530000000000000000e+02,1.482978781910112431e+01,2.596514695088737127e-05,2.591178011811479820e+01,3.060015067581173075e-05
3.090000000000000000e+02,1.471120833228510705e+01,9.464838348348228987e-06,2.740467927189810737e+01,2.332781553574290274e-05
4.550000000000000000e+02,1.469220059942932366e+01,9.090162667617615778e-06,2.875389613962353152e+01,2.577394161125165614e-05
2.190000000000000000e+02,1.454499856506288857e+01,8.786826079161728803e-06,3.143216194820073639e+01,2.376522404226789925e-05
6.400000000000000000e+01,1.453632917779245659e+01,6.043765184736314274e-06,3.045241389272820243e+01,2.534172136439397617e-05
1.130000000000000000e+02,1.448798437269809192e+01,3.222729893907331263e-05,2.758934616964585018e+01,2.618391649608596607e-05
3.910000000000000000e+02,1.443838737240633741e+01,1.319001823247676604e-05,3.466645172040288259e+01,4.083343659726559047e-05
3.300000000000000000e+01,1.443598981282314320e+01,5.219500127631999972e-06,3.264842981053671167e+01,2.576584044565223902e-05
3.150000000000000000e+02,1.433663754944168467e+01,1.808395690997882308e-05,2.699686080480804762e+01,4.273501278514868908e-05
2.920000000000000000e+02,1.427461260570824209e+01,4.923226339662075540e-03,1.150925814546561242e+03,5.844574519916654817e-03
4.910000000000000000e+02,1.426148340367030443e+01,7.771935700492227345e-06,3.150547823057128127e+01,2.998953330622642724e-05
4.080000000000000000e+02,1.410119483129817830e+01,3.900726563081730389e-05,1.923098497798578421e+01,3.098072689435446640e-05
1.990000000000000000e+02,1.397388561340920710e+01,1.451088056304891802e-05,3.840034963768906806e+01,2.969755289828612867e-05
5.270000000000000000e+02,1.396677215674851524e+01,2.793036251887750501e-05,2.615876826830719892e+01,2.967423957603640547e-05
6.890000000000000000e+02,1.382694373165255897e+01,1.055921646275642271e-05,3.080100599843229148e+01,3.758421432724732690e-05
2.410000000000000000e+02,1.376243303660955064e+01,1.328763846383560640e-05,2.477188051284296222e+01,2.087993523980011856e-05
2.000000000000000000e+02,1.368966271414303471e+01,8.614757566865524207e-06,3.138935118360200249e+01,3.457767962906128521e-05
6.940000000000000000e+02,1.366302895593072009e+01,3.783238621771657374e-05,2.738549414920882796e+01,3.643866365656699038e-05
3.500000000000000000e+02,1.357940116602430436e+01,1.821461245686123635e-05,2.647782124570667506e+01,2.430983744237089184e-05
6.690000000000000000e+02,1.347751296620239359e+01,1.624642087522691549e-05,2.850254862001622058e+01,3.860477350908324685e-05
3.710000000000000000e+02,1.323113735127770774e+01,1.774274745207756127e-05,3.382023715941395636e+01,3.896118091420011301e-05
9.900000000000000000e+01,1.303836680493974498e+01,1.406061081743047513e-05,2.000300586440430806e+01,2.490186001630392070e-05
6.320000000000000000e+02,1.262173886197856199e+01,3.106780488776127396e-06,2.826903430567618614e+01,1.725475872264569272e-05
7.830000000000000000e+02,1.246843935819831195e+01,1.726226105234068559e-05,1.950458343567997588e+01,2.632921692591593880e-05
4.950000000000000000e+02,1.218398525506720276e+01,3.632017472016528807e-05,2.448938731003038782e+01,2.394952608104895008e-05
5.940000000000000000e+02,1.217901928504644538e+01,4.137333622813005477e-06,2.505769659692334272e+01,2.682176352686278738e-05
3.330000000000000000e+02,1.213682751810245541e+01,1.188811153088166288e-05,2.345694648883798195e+01,2.983549558273882905e-05
6.370000000000000000e+02,1.209417730425986726e+01,2.540361020621759698e-05,2.554645291193571666e+01,3.869695456705998928e-05
1.290000000000000000e+02,1.197273742457046986e+01,9.933253673763689374e-06,2.815176768265325080e+01,2.780021390564937629e-05
3.340000000000000000e+02,1.193980501791723015e+01,3.321378412742844205e-06,2.297872278536634738e+01,1.786118887717866167e-05
2.740000000000000000e+02,1.187349251002578754e+01,6.723818581066330581e-06,2.263956049438672480e+01,2.240361999928440435e-05
4.640000000000000000e+02,1.176572832566676752e+01,4.849016183238622456e-03,1.024315575302021216e+03,5.974775290822401629e-03
4.360000000000000000e+02,1.163029747893110155e+01,4.279703095598142077e-05,2.618572243574491409e+01,3.775426318147898156e-05
7.510000000000000000e+02,1.141329738802015825e+01,2.048293893743731984e-05,2.352028503179396779e+01,2.344059060339421632e-05
5.430000000000000000e+02,1.097495550376173057e+01,1.376437012429258585e-05,2.434365336359476828e+01,1.924908920995013485e-05
8.000000000000000000e+01,1.082661474505125732e+01,1.682800812755342847e-05,2.106676150819309257e+01,2.696519279830111778e-05
5.600000000000000000e+02,1.076388707439985204e+01,5.392013209503747600e-06,2.158637252629692682e+01,2.345794710246619538e-05
7.970000000000000000e+02,1.069723787106752333e+01,1.153188116759265333e-05,2.597923309224080413e+01,2.225635350713644098e-05
2.990000000000000000e+02,1.053186884301816839e+01,1.925746606515574045e-06,2.367927336175012698e+01,2.021283719885767961e-05
1.940000000000000000e+02,1.032035051358810662e+01,6.759400576331382584e-06,2.340339893492222245e+01,4.015682378310824933e-05
3.230000000000000000e+02,1.026745688927000977e+01,2.988777037061313407e-03,4.508924524983127640e+02,3.584455857749123311e-03
4.630000000000000000e+02,1.013618589140319770e+01,3.533804295712175946e-06,2.135502044190235438e+01,2.520058164470699011e-05
2.800000000000000000e+02,1.006393060598647082e+01,6.134455187413110308e-06,1.775213858779375897e+01,1.704233745058172993e-05
5.520000000000000000e+02,1.000158765886011736e+01,9.076632053110959375e-06,2.120953783787246749e+01,1.764774573091048006e-05
1.180000000000000000e+02,9.980055291215245816e+00,1.546261108176475794e-05,2.448478915878942530e+01,2.214125260212831183e-05
1.680000000000000000e+02,9.944551147227228327e+00,1.291033804972027292e-05,2.079024091495777782e+01,2.368029221756345746e-05
6.650000000000000000e+02,9.920594239122550562e+00,5.654996492790016242e-06,2.021630035869675979e+01,2.061214304845411285e-05
4.720000000000000000e+02,9.906573813518958715e+00,1.018994910612491162e-05,2.279448063141255432e+01,2.555328216647017580e-05
5.530000000000000000e+02,9.882454672238839777e+00,6.184418649464399176e-06,2.154927174949671809e+01,1.958153106465832468e-05
1.530000000000000000e+02,9.846632605778065539e+00,1.571705824369307039e-05,2.104279967576608357e+01,1.451829960864174502e-05
3.130000000000000000e+02,9.711714761046211564e+00,3.934857593813667494e-06,3.180208916319286061e+01,2.193785603134544197e-05
3.320000000000000000e+02,9.702375177887782698e+00,5.206405311747636307e-06,1.900425944738537964e+01,2.121607144801578257e-05
4.830000000000000000e+02,9.660362099614486553e+00,1.549247840801577591e-06,1.729367060870951178e+01,1.966185974804053884e-05
5.460000000000000000e+02,9.627021310730892623e+00,6.078939452077865947e-06,2.335877190812582427e+01,2.169669753702646809e-05
5.880000000000000000e+02,9.578620702601934767e+00,9.201735320883208598e-06,2.005212826324882158e+01,1.829764425791853341e-05
4.100000000000000000e+02,9.266198733658971065e+00,7.479793519461065514e-04,2.584887290637087176e+02,7.887398175992082778e-04
4.620000000000000000e+02,9.254433071124836374e+00,4.481340381918650376e-05,2.081030953989318633e+01,2.283862826238376140e-05
4.780000000000000000e+02,9.249274592002880269e+00,8.398375156761919699e-06,2.049557045443639325e+01,2.504235427870768046e-05
5.760000000000000000e+02,9.145571130776486868e+00,6.371964857388855925e-06,2.289213984495469845e+01,1.754865717286206638e-05
3.600000000000000000e+01,9.125996923230168534e+00,1.970455061408146592e-06,1.743880884441328405e+01,9.472593418611489389e-06
1.930000000000000000e+02,9.105562383572502583e+00,8.544073053620522407e-06,1.910641433124366984e+01,1.905856703931039980e-05
5.730000000000000000e+02,8.929508029427720928e+00,3.780392784299634013e-06,1.782329109678738632e+01,1.846262420285312944e-05
2.100000000000000000e+02,8.898151401919502490e+00,2.477700987429899346e-05,2.427012870739586958e+01,2.001746407010811496e-05
3.770000000000000000e+02,8.830075776889335870e+00,3.512107656566700303e-03,8.161110089071017910e+02,3.880532193432264468e-03
6.090000000000000000e+02,8.727132659460199449e+00,2.966028399782074526e-03,6.997273223845808161e+02,3.460508474135904310e-03
3.390000000000000000e+02,8.520167909809103435e+00,1.877733380078291042e-06,1.564923301787086274e+01,1.246511781939636636e-05
4.900000000000000000e+02,8.332275075773010187e+00,5.353224164719064730e-06,1.527968838562974874e+01,1.489892495018648094e-05
7.200000000000000000e+02,8.260894275650116469e+00,1.071894622944315808e-03,2.886196027810271971e+02,1.249864437766348615e-03
5.200000000000000000e+01,8.139360297109242026e+00,3.456825023039015858e-04,2.101789740214888127e+02,3.255899047651522192e-04
7.000000000000000000e+00,8.091492499526539817e+00,1.130531483495292246e-05,1.466700740303200767e+01,1.397941326923198803e-05
4.500000000000000000e+02,8.088789614105529324e+00,3.801244072815754897e-06,1.397130042327976263e+01,1.746524975209122390e-05
7.520000000000000000e+02,8.085187060135920589e+00,7.353246810409453868e-03,1.018084090231235677e+03,7.985692502371462970e-03
3.820000000000000000e+02,8.066279547374294978e+00,1.813307490378635679e-05,1.669942186779076110e+01,1.103747713640021529e-05
6.550000000000000000e+02,8.039258657454201540e+00,2.033245491895750625e-04,4.865277945356916689e+01,1.519313457609820534e-04
6.630000000000000000e+02,7.961233408544448942e+00,1.487643543352017954e-05,1.558648066738951599e+01,1.474849995121764410e-05
3.880000000000000000e+02,7.893889809946317726e+00,6.415541023833048512e-06,1.639987389756876723e+01,1.449741104972804859e-05
1.430000000000000000e+02,7.787465668886025760e+00,8.110764854970083231e-06,1.461062279017847665e+01,1.560591450518533118e-05
6.440000000000000000e+02,7.773362249518634748e+00,3.191668684922992515e-06,1.656961568736968715e+01,1.238567923499497457e-05
7.150000000000000000e+02,7.594628092473776348e+00,7.757977518246065254e-07,1.416173912180216909e+01,8.346607768865856630e-06
5.580000000000000000e+02,7.586742552145770979e+00,1.196036599307669509e-05,1.752318371237904771e+01,1.323440280118606113e-05
8.600000000000000000e+01,7.585640566833931508e+00,2.149489270084378628e-05,1.787725432187607666e+01,2.345679589015846266e-05
1.690000000000000000e+02,7.447636585384371344e+00,9.943286685368191703e-07,1.208227013557791452e+01,6.898707752500913973e-06
3.760000000000000000e+02,7.282868712694177127e+00,7.955034638628247235e-07,1.429130361932541859e+01,1.187895858396032054e-05
3.000000000000000000e+00,7.274790875464319129e+00,1.373568071016998867e-06,8.554242498443095144e+00,6.336636568332243710e-06
5.550000000000000000e+02,7.253335982258472647e+00,5.176965613598201173e-06,1.871469414771587836e+01,1.986553250907744579e-05
4.030000000000000000e+02,7.135381700095375201e+00,2.776912735913263059e-06,1.713791999151217738e+01,1.540410140106425585e-05
3.200000000000000000e+01,7.123648624970699395e+00,3.843295971302809203e-06,1.780774796005344029e+01,2.162573812865045664e-05
2.750000000000000000e+02,6.929767216654654227e+00,1.265164041525101132e-05,2.159132954980773533e+01,2.062444455837784309e-05
7.290000000000000000e+02,6.924913318456544786e+00,9.259592657704361236e-07,1.373889374495720261e+01,8.628563944740026779e-06
5.250000000000000000e+02,6.895110110831954131e+00,2.471402426686869473e-06,1.492052238375713635e+01,1.383705556297757554e-05
5.970000000000000000e+02,6.877926240917371814e+00,5.974234129384233503e-03,1.260605454289575391e+03,6.424925006729789202e-03
2.560000000000000000e+02,6.772693815016145535e+00,2.442455660714769685e-05,1.487313204367033848e+01,1.880066069631147264e-05
7.600000000000000000e+02,6.735493887407573155e+00,3.648005300758749890e-06,1.588449816329615061e+01,1.142367342155238029e-05
1.200000000000000000e+01,6.730718306562708086e+00,1.674969896913600711e-05,1.570811756454129693e+01,1.250435289594500585e-05
6.680000000000000000e+02,6.673408260247567725e+00,2.791673247654714470e-06,1.164528676211535263e+01,8.502432164813166350e-06
5.700000000000000000e+01,6.657793819704917127e+00,2.878886670461550524e-04,1.375239250987735318e+02,2.354359250717204634e-04
2.440000000000000000e+02,6.577809954890979860e+00,1.774250575628109093e-06,1.404536767589280366e+01,1.009895925096428728e-05
7.210000000000000000e+02,6.509052877373127544e+00,1.677779140686617003e-05,1.334495009396877663e+01,1.504195827334047917e-05
3.470000000000000000e+02,6.501538835399228056e+00,1.957169970401981712e-06,1.073229949767828373e+01,1.418730265610006169e-05
5.480000000000000000e+02,6.472140785801971496e+00,4.234086840019280450e-03,1.091455801989337033e+03,5.197982805545126560e-03
1.830000000000000000e+02,6.437735913552546485e+00,1.913253384658370178e-06,1.286246510524793329e+01,8.697833001646928757e-06
4.880000000000000000e+02,6.129298861178458679e+00,2.789458920463896008e-06,1.265864754272539194e+01,1.256626787080210462e-05
2.660000000000000000e+02,6.000768699511427329e+00,1.039163253587488225e-05,1.606172913096393273e+01,1.299704984679580694e-05
7.260000000000000000e+02,5.971080775956488118e+00,3.810898383260858589e-06,1.390729345656447080e+01,1.636641509695230330e-05
3.830000000000000000e+02,5.918150486278642042e+00,7.777897754190722440e-04,1.805841479893116457e+02,1.017061433154650262e-03
1.540000000000000000e+02,5.916508458634166523e+00,3.173775589705959473e-06,1.036961066028913159e+01,1.019688789255554208e-05
4.710000000000000000e+02,5.912105401534985205e+00,2.164316586058861493e-03,7.294738416310667617e+02,2.337606368147324143e-03
2.360000000000000000e+02,5.873639685587108694e+00,3.553890132340287687e-03,9.705225319844983005e+02,3.956196428087311624e-03
2.970000000000000000e+02,5.832884865596554391e+00,1.425598762083709635e-05,1.566019666996913884e+01,1.616743464237396810e-05
6.760000000000000000e+02,5.801215692377365230e+00,3.331390306577107872e-06,1.032769993874967795e+01,1.121254416183236340e-05
2.650000000000000000e+02,5.768675976356395729e+00,1.059685893650898404e-06,1.105603333767034435e+01,5.219188006514823923e-06
7.500000000000000000e+02,5.717367859218583703e+00,6.736755937843767807e-06,2.226257114274898186e+01,1.853727527777230977e-05
6.420000000000000000e+02,5.690035758365571184e+00,6.705792950274937018e-06,1.144358551891092901e+01,1.063538979759039044e-05
5.260000000000000000e+02,5.664331664116785348e+00,3.147233558286437736e-04,1.092660098474959369e+02,3.152380890082050148e-04
5.680000000000000000e+02,5.643654231837253121e+00,4.509749488978862768e-06,1.232353973270232927e+01,1.383637665815527726e-05
1.710000000000000000e+02,5.581720127910505980e+00,1.661254253820832364e-06,1.336284262636698195e+01,1.036574254915004998e-05
6.390000000000000000e+02,5.555533134773949833e+00,1.393555540476843511e-06,8.930706930487140482e+00,6.516330943687498412e-06
4.480000000000000000e+02,5.472423687127034420e+00,2.164410758157432760e-06,8.817162911331513087e+00,6.929836603669594817e-06
7.560000000000000000e+02,5.428031751394013504e+00,6.481184113297096974e-06,8.257133905870045254e+00,1.278504126510655639e-05
3.490000000000000000e+02,5.331798694567409846e+00,7.232894235741551273e-07,1.031563357605588926e+01,6.167029707163298499e-06
6.520000000000000000e+02,5.297001637484028969e+00,1.288978407742023080e-06,1.043114845387207801e+01,7.198654080674673257e-06
2.450000000000000000e+02,5.268535079071125615e+00,7.512611723625972740e-06,1.309398391235971104e+01,1.961883435253075104e-05
4.290000000000000000e+02,5.256252308413928986e+00,2.271181396068765179e-04,1.258047807377467109e+02,2.951631796855824731e-04
7.480000000000000000e+02,5.113734593818008101e+00,1.882155116447947847e-06,9.516458209565216819e+00,6.585587035663862683e-06
6.770000000000000000e+02,5.096068058062370731e+00,3.596389913506323084e-07,9.344176279730060486e+00,3.811580302960959698e-06
7.170000000000000000e+02,5.083607794216371545e+00,1.659665824544138707e-06,9.199481524313995351e+00,8.174953605120263245e-06
3.690000000000000000e+02,4.919428740699633984e+00,1.405045466310054361e-06,8.209306657955812270e+00,5.660212304557136119e-06
5.340000000000000000e+02,4.878112009675052541e+00,2.761071013456909380e-06,1.132390309383097282e+01,1.417428388877848593e-05
8.900000000000000000e+01,4.655549462807499594e+00,4.326414178319545047e-06,8.525651404614222884e+00,8.574504185506203895e-06
2.690000000000000000e+02,4.650706528314675126e+00,6.144154371555761343e-06,9.608181284099471142e+00,1.317895632472480515e-05
1.970000000000000000e+02,4.624081333495218438e+00,2.309722674944739439e-06,1.134461667294269915e+01,9.013375805116672195e-06
4.870000000000000000e+02,4.624063234775799280e+00,1.090964748285522946e-05,1.082813506789792157e+01,1.131859671882034261e-05
1.340000000000000000e+02,4.569461633162109848e+00,2.078780949044417281e-06,9.867314607130767357e+00,8.170713314411193187e-06
7.030000000000000000e+02,4.525433611739708262e+00,2.469925287742932378e-06,8.858076668854097946e+00,6.759057314608861006e-06
5.280000000000000000e+02,4.464495942767012338e+00,1.856855679176409661e-06,1.036779255576771241e+01,9.759230492901572291e-06
1.900000000000000000e+01,4.382375080007145485e+00,4.512299968512868318e-05,9.743666543267169189e+00,1.320607648030706288e-05
6.510000000000000000e+02,4.252283529608840595e+00,7.300913856735205247e-06,1.061284398058987577e+01,1.411226923457550083e-05
6.780000000000000000e+02,4.236714974549780521e+00,3.998540005792052126e-06,7.886702532390671649e+00,5.525849429235290657e-06
5.100000000000000000e+02,4.229726949125984348e+00,9.411387492225053217e-07,8.854669500693061579e+00,7.739069106938264008e-06
7.940000000000000000e+02,4.189178631170316081e+00,3.662416242399913181e-06,8.342837703395359128e+00,1.439572632127975058e-05
3.660000000000000000e+02,4.079573504145865392e+00,1.598067038785396548e-06,8.127279879684104813e+00,7.045524111978654705e-06
7.130000000000000000e+02,3.929378708894471384e+00,4.785669691710481960e-04,1.262889917427092143e+02,5.270738190377055772e-04
3.700000000000000000e+01,3.922902043467649591e+00,2.719657028102120788e-06,8.402437022558798319e+00,1.120176857624094486e-05
6.800000000000000000e+01,3.738537221797008314e+00,2.081711335024529276e-06,8.581648490362608683e+00,1.271031010068673185e-05
5.010000000000000000e+02,3.725207866118465105e+00,9.270598814364085628e-07,6.553256050797198640e+00,5.811328048028074746e-06
3.120000000000000000e+02,3.651843431808065255e+00,2.207434754242626130e-06,7.832005171393127796e+00,8.416998387274597304e-06
4.790000000000000000e+02,3.648125099598803267e+00,3.987351136686232979e-06,7.707518719725771739e+00,7.631980018244258982e-06
4.800000000000000000e+02,3.622097018153794146e+00,3.454538757828018758e-06,7.653858545084588627e+00,1.150023043989706677e-05
3.540000000000000000e+02,3.601238595475488857e+00,2.400764750282750382e-06,6.308794271075961468e+00,3.993842160153281022e-06
4.600000000000000000e+02,3.584961690956978142e+00,9.719224815592427936e-07,6.492041350219571960e+00,5.127100853188812143e-06
5.400000000000000000e+02,3.574952918784064959e+00,1.797432252794543413e-06,7.964342606060514917e+00,7.478898859014866988e-06
3.220000000000000000e+02,3.558192256300266809e+00,1.046980562551590075e-06,7.306491069830054030e+00,7.772882043715984162e-06
4.500000000000000000e+01,3.506533603971570656e+00,6.553772099313960755e-07,6.073330180016860425e+00,3.703741000819625792e-06
4.520000000000000000e+02,3.392523638951430609e+00,3.453920302767775053e-06,7.369777970810607926e+00,8.522638751234297788e-06
7.080000000000000000e+02,3.387563665109316169e+00,8.141386149683724928e-07,5.555763336197655278e+00,4.128795993686162269e-06
1.630000000000000000e+02,3.378709972483508572e+00,9.714096848057920840e-07,1.274695596534593633e+01,8.890975538228314420e-06
4.370000000000000000e+02,3.338010602403428173e+00,1.245192117039005918e-06,9.512815724429831477e+00,6.519057835513076250e-06
4.250000000000000000e+02,3.253558172325452524e+00,4.977423457362734075e-06,9.229624311744947462e+00,9.862346039047273157e-06
4.990000000000000000e+02,3.211052397212255105e+00,1.354147943084516354e-06,7.192801007382421119e+00,6.218470805764476588e-06
5.000000000000000000e+01,3.137385181872845763e+00,6.725634080325879611e-07,6.263143594180640150e+00,4.322760842992390128e-06
4.960000000000000000e+02,3.055555451022704982e+00,9.559562445260001800e-07,6.067773718014978890e+00,4.406756652328147108e-06
6.220000000000000000e+02,2.968425355380212682e+00,1.501740898608442058e-06,7.834370710486995293e+00,7.801376150060235535e-06
6.180000000000000000e+02,2.940092077658969849e+00,2.008848741154554702e-04,5.651287258695062121e+01,2.700767239336265943e-04
3.500000000000000000e+01,2.905134850001131142e+00,1.321927876280769509e-06,6.998505460476454942e+00,5.526058973554735065e-06
6.170000000000000000e+02,2.901740158134234360e+00,3.062988439909150779e-06,4.978029176234318953e+00,5.686876202555517657e-06
1.400000000000000000e+01,2.892927188054648102e+00,1.301789516048389161e-03,4.110340639863804881e+02,1.312388606479934902e-03
5.810000000000000000e+02,2.818198281951257211e+00,1.738342924530921316e-06,6.355897461734199005e+00,7.442330909928872510e-06
7.780000000000000000e+02,2.709311252128383529e+00,5.313160264605543930e-06,5.595928330872217416e+00,8.028378294291969194e-06
5.800000000000000000e+02,2.623974178653059042e+00,5.118351140511520857e-06,7.060017437147177333e+00,5.860759344974792384e-06
2.870000000000000000e+02,2.613498311988510014e+00,1.075746602286336937e-06,5.268559917067388909e+00,5.180725026784099404e-06
4.230000000000000000e+02,2.447871565171089170e+00,1.538770366554749047e-06,4.639825348312737852e+00,4.422596953791890336e-06
5.410000000000000000e+02,2.435371553861200411e+00,3.822119589243796431e-07,6.486158464817819436e+00,4.748584658055823479e-06
6.710000000000000000e+02,2.382108921524309864e+00,2.532875649968741840e-06,5.374842623905291994e+00,4.966577313435341254e-06
1.000000000000000000e+00,2.348686579033470334e+00,1.152248168161415664e-06,4.226288501083003801e+00,4.435246892879694289e-06
2.380000000000000000e+02,2.202440766915750192e+00,1.039908065998885329e-06,4.460482889449417954e+00,3.795058612480399492e-06
9.100000000000000000e+01,2.119132693367566933e+00,2.253271744176139317e-06,4.664388739644288684e+00,5.402343495694486389e-06
4.600000000000000000e+01,2.074146805912614244e+00,1.864278332771427474e-06,5.430259320874300855e+00,4.234370210630791999e-06
1.820000000000000000e+02,2.071379149954558851e+00,1.710581505153100267e-06,3.743417396110574558e+00,5.139848762179396462e-06
3.410000000000000000e+02,2.043011738751799644e+00,2.604477813370703222e-06,6.836677446784148238e+00,5.889729303231718368e-06
3.610000000000000000e+02,2.021020248841595368e+00,1.124522173941303964e-06,4.367506096801431426e+00,4.264632077222454571e-06
3.300000000000000000e+02,1.938640621024106947e+00,1.918596768749464350e-06,4.244475934147922125e+00,3.636741059066603706e-06
3.670000000000000000e+02,1.841003671806044073e+00,6.944778728329646487e-07,4.311537161548878672e+00,3.396470315959291074e-06
1.850000000000000000e+02,1.787895924813175830e+00,4.731367806912184634e-07,3.786206498979450608e+00,2.712685830104537353e-06
8.400000000000000000e+01,1.746193188456861556e+00,7.913824615626747391e-07,3.725988109392997405e+00,2.649001340770688340e-06
4.920000000000000000e+02,1.704085676275094885e+00,4.435229034783861423e-07,3.430124044848204434e+00,2.436679581696653518e-06
4.580000000000000000e+02,1.702577032980825633e+00,2.040599908499166342e-06,3.397710506681392406e+00,3.917583469737042803e-06
2.580000000000000000e+02,1.693135364721017444e+00,2.803237558437249224e-03,4.908212795454211346e+02,2.807678224661904181e-03
2.330000000000000000e+02,1.667878191113673525e+00,2.301956467668056893e-06,3.278571144879433685e+00,2.327259159723127607e-06
3.780000000000000000e+02,1.598023001055126402e+00,4.848383759380593170e-07,3.095781251824579972e+00,2.361709184718345397e-06
6.410000000000000000e+02,1.502492826107810098e+00,2.703542227525212208e-07,2.557597239971860503e+00,1.332857477187879523e-06
2.800000000000000000e+01,1.490113156779993897e+00,1.217275265701829406e-06,3.444593461178270033e+00,2.203069401363787936e-06
1.420000000000000000e+02,1.443388436852305556e+00,5.107298211491401686e-07,2.474849565775623095e+00,1.997880014099698840e-06
2.940000000000000000e+02,1.414811328029589976e+00,1.208102159978281359e-06,2.527212921919390620e+00,2.271076097919749622e-06
4.460000000000000000e+02,1.352830108848061652e+00,5.183936738849530320e-07,2.899891592330007484e+00,3.250837671236283897e-06
8.000000000000000000e+02,1.285331723691118144e+00,2.522862125438743644e-07,2.547886895179498623e+00,1.697436398289011395e-06
7.470000000000000000e+02,1.284590446496562510e+00,4.954151072939732768e-07,2.559529892658311656e+00,1.951467515909019112e-06
7.570000000000000000e+02,1.231027698364758338e+00,2.768524945819700685e-07,2.856870349037841095e+00,1.861859716014323644e-06
6.820000000000000000e+02,1.207604873819609015e+00,1.128870790203175705e-06,2.433096471106986680e+00,1.878760412214587627e-06
5.900000000000000000e+02,1.203188926345829524e+00,5.622407213050776621e-07,2.188565374007641395e+00,2.172808232625470706e-06
4.470000000000000000e+02,1.152092392730610815e+00,8.461402159907867377e-07,2.200041990097166611e+00,1.810614709764626562e-06
4.170000000000000000e+02,1.089482459829216543e+00,3.650759086226172489e-07,2.054741117883062351e+00,1.716710254246475728e-06
1.090000000000000000e+02,1.061442039275034999e+00,1.351461707049812953e-06,2.110662942531694064e+00,2.387705648205259138e-06
3.380000000000000000e+02,9.947004616868487803e-01,4.529988822335584437e-07,1.632853276539224963e+00,1.206059071229803062e-06
3.550000000000000000e+02,9.574252633951222391e-01,2.998164947805407366e-07,2.401405933470151410e+00,2.720152568941475969e-06
2.830000000000000000e+02,9.428743573863110905e-01,4.729012059989765592e-07,1.639687432641578679e+00,1.555725285721016591e-06
1.240000000000000000e+02,9.393930096763083437e-01,7.187284136812776436e-07,1.626157471817669675e+00,1.539604621604726444e-06
2.000000000000000000e+00,8.113142992011056487e-01,5.360736083356056973e-07,1.324449372254682400e+00,1.210310632198087660e-06
5.070000000000000000e+02,8.042623698237277852e-01,9.452110087126396113e-07,1.843492230596934123e+00,1.525000111331214542e-06
7.270000000000000000e+02,7.635621044106248867e-01,4.490037840329282195e-07,1.618948368030723284e+00,1.799812140754091517e-06
6.300000000000000000e+02,7.318364352964986663e-01,2.032571169193243994e-03,4.265603395462705407e+02,2.062067331895202620e-03
1.600000000000000000e+02,7.132552889986771838e-01,6.939331399497284646e-07,1.803313956527899720e+00,1.471509085820525728e-06
2.810000000000000000e+02,6.534871476328865114e-01,6.737511192666099107e-07,1.285748879167004866e+00,9.652432586170578830e-07
6.860000000000000000e+02,6.148275509735502409e-01,3.583782666826135489e-07,1.179805802336616916e+00,1.173063431382627919e-06
3.630000000000000000e+02,5.377316893802301934e-01,2.383539523825702154e-07,9.495133955401567905e-01,7.415759909847103834e-07
1.770000000000000000e+02,4.643571804645142409e-01,9.091310459339292311e-08,9.529453566295853495e-01,5.582130136942722406e-07
7.300000000000000000e+01,4.435035818146760844e-01,3.030400737868626839e-07,7.635700851876057182e-01,8.501318945256889673e-07
4.070000000000000000e+02,4.271280838531963386e-01,2.151917376210995721e-07,8.020209852649136106e-01,1.191588746874296773e-05
5.300000000000000000e+01,3.980319844023537668e-01,1.737859651356750614e-07,8.171314256362418593e-01,5.563950840773379600e-07
9.700000000000000000e+01,3.627953939560825125e-01,4.997744836555057127e-07,9.195597488864893920e-01,1.125778619306064059e-06
7.350000000000000000e+02,3.511877042042599317e-01,1.704502496030795416e-07,6.865093836649733827e-01,9.145341314670603470e-07
1.600000000000000000e+01,2.810473518501679924e-01,3.975653374831328280e-07,5.395354755138321856e-01,8.818352295095119882e-07
6.920000000000000000e+02,2.663442494863776933e-01,1.220025345058023770e-07,6.348324746638912552e-01,6.793715309247706328e-07
2.790000000000000000e+02,2.515707247348825670e-01,1.388076417408048804e-07,4.556709629690347541e-01,4.196436478114130004e-07
7.360000000000000000e+02,1.524719076830631792e-01,1.353545715672153639e-07,3.279411943401888130e-01,2.721785601852023877e-07
6.020000000000000000e+02,1.500488822462523741e-01,4.160105479892684302e-08,1.500991459456938737e-01,8.080713187901122845e-06
6.310000000000000000e+02,1.318237204041599053e-01,5.577956181552207378e-08,2.600356655268904471e-01,1.849073041503139046e-07
4.400000000000000000e+01,1.209859674655320849e-01,3.657911341537769714e-08,1.177923091167437375e-01,5.369686092547953628e-06
6.670000000000000000e+02,1.018045274943958078e-01,1.642377310696412373e-08,1.014960360651506466e-01,5.619973074701116201e-06
3.860000000000000000e+02,5.330338283547551848e-02,2.526141602997720468e-08,9.860570707960231163e-02,5.475596579803731896e-06
3.740000000000000000e+02,2.157519455719800541e-02,4.294867355429534607e-09,1.423848069625587714e-02,1.272796880127893359e-08
6.720000000000000000e+02,6.118568766070776703e-03,2.057137759814220757e-09,5.025216318838413888e-03,4.484490664386464066e-09
6.810000000000000000e+02,3.020293261138543364e-03,1.499926588528295679e-09,2.738579886957897419e-03,2.370134801488594895e-09
9.400000000000000000e+01,2.258949379965769465e-03,1.591677967887871732e-09,1.964194375940354637e-03,1.388226983554302718e-09
