4.122000000000000000e+03,3.380522649231874652e+02,1.153550468568555849e-03,7.501187697206685243e+02,1.240983418315049457e-03
5.228000000000000000e+03,3.092542886171401619e+02,1.614965502008004284e-03,7.098687054012140152e+02,1.461314218631030179e-03
3.760000000000000000e+03,3.035397243378056942e+02,1.481590937281597681e-03,6.746834201661110910e+02,1.004717713111419547e-03
4.218000000000000000e+03,2.952305669996520692e+02,9.498311246676503826e-04,6.635732380185346528e+02,1.060907311276271942e-03
3.187000000000000000e+03,2.722758549182840397e+02,1.911054869631226977e-03,7.439945862311977862e+02,1.070317339380805026e-03
5.500000000000000000e+03,2.682026336392704025e+02,1.966023442806585572e-03,6.534737761533139064e+02,1.108510548062334499e-03
2.326000000000000000e+03,2.613596386025113247e+02,1.977457535270805283e-03,6.372576024491572753e+02,9.058446624958119489e-04
2.160000000000000000e+02,2.609308003135747640e+02,2.226701608535960105e-03,5.853786242323969873e+02,7.011018150674485196e-04
2.499000000000000000e+03,2.596977401467040636e+02,7.726494188248008311e-04,5.385530885846055753e+02,8.056215553571521555e-04
4.117000000000000000e+03,2.531561385367206185e+02,7.516653695265178856e-04,5.461742037357587378e+02,7.323136022322701902e-04
3.660000000000000000e+03,2.525940270329678867e+02,2.078915230727944319e-03,6.605735519489446688e+02,9.659650892352070585e-04
6.766000000000000000e+03,2.441437106218292570e+02,1.381478850428227408e-03,6.161888212932642546e+02,8.782871559826613056e-04
1.828000000000000000e+03,2.421080023789224640e+02,3.375429971582583587e-03,6.411415274301950831e+02,1.108662259870133501e-03
1.013000000000000000e+03,2.398261229940220005e+02,8.964146579750787184e-04,4.952259562081021045e+02,1.185310570733602922e-03
3.827000000000000000e+03,2.386624550683964117e+02,1.429924691514874394e-03,5.655459695679976448e+02,1.010247750637805961e-03
4.383000000000000000e+03,2.364289672972928997e+02,1.476761773914997238e-03,5.644978716898945095e+02,9.421987599486553221e-04
4.861000000000000000e+03,2.317790213675511666e+02,8.691212149394632975e-04,4.985377659115881670e+02,8.833828947406284233e-04
6.687000000000000000e+03,2.270426291185063121e+02,1.162097795788877026e-03,5.791352518219144940e+02,7.980090377193505610e-04
7.100000000000000000e+03,2.268145863084142775e+02,1.181581114974280871e-03,4.600739174886687124e+02,1.117038942015606898e-03
1.395000000000000000e+03,2.236747934099342672e+02,1.332381423084480314e-03,5.499350369961938441e+02,7.813599966924168836e-04
2.250000000000000000e+02,2.204841836114425746e+02,6.598495958850056223e-04,5.042056943292977849e+02,8.345050800597868506e-04
7.720000000000000000e+02,2.103461234255809416e+02,5.723383003328215597e-03,4.927070649126588933e+02,1.032040626714046672e-03
7.063000000000000000e+03,2.098793699887543198e+02,6.833364932022398253e-03,4.949836269324887326e+02,8.412668678319941114e-04
2.918000000000000000e+03,2.093765726883073057e+02,2.446339349143545304e-03,4.834121181110838847e+02,6.100726290050098848e-04
4.128000000000000000e+03,2.075334490553365185e+02,1.340216568560140134e-03,4.608980575499386987e+02,8.266173616958449096e-04
3.905000000000000000e+03,2.057275116093543090e+02,2.311304010025484919e-03,5.177872713750606408e+02,9.074792518280460360e-04
3.671000000000000000e+03,2.048999584034403085e+02,1.801552698602437936e-03,4.965338424867596245e+02,5.734908530443238311e-04
1.449000000000000000e+03,2.044829689226220637e+02,1.713312399785084849e-03,5.000436990205060965e+02,8.277448115028220206e-04
2.845000000000000000e+03,2.029646654555510565e+02,9.334678087867950228e-04,4.460024483021559263e+02,6.330246443673317796e-04
5.289000000000000000e+03,2.022215137322620535e+02,3.886390953398655580e-03,5.475275380398986727e+02,7.562900774755437327e-04
1.386000000000000000e+03,2.020686437553875123e+02,1.461323284355917768e-03,4.854125788815182432e+02,8.413065034933995320e-04
2.722000000000000000e+03,2.017658938014399723e+02,4.051538234596991934e-04,4.338247018146986989e+02,6.700807661760612701e-04
4.320000000000000000e+02,2.006481038168188888e+02,1.018268909125546887e-03,4.197402999669513974e+02,8.282057274636622692e-04
6.676000000000000000e+03,1.985940397639106152e+02,6.207382770911002573e-03,4.813007919773831418e+02,1.066591754056363120e-03
7.092000000000000000e+03,1.967160608946571472e+02,1.344988328511095583e-03,4.687081528878961194e+02,7.515853528730373576e-04
9.720000000000000000e+02,1.965907817143267948e+02,1.895133952447016022e-03,4.565618290397802639e+02,7.066081811201788132e-04
6.755000000000000000e+03,1.917584628252267862e+02,1.163007500046137066e-03,4.409925531649729464e+02,7.862997081881883911e-04
3.161000000000000000e+03,1.905780158716266044e+02,1.477730129273016352e-03,4.382383745227520535e+02,7.096564973667779950e-04
7.250000000000000000e+02,1.893308827424663718e+02,1.259233356597377722e-03,4.489170498981984565e+02,7.362296917344021002e-04
5.005000000000000000e+03,1.880961813104963767e+02,4.238449029763738385e-04,4.028159821496458335e+02,5.220831973391841735e-04
5.138000000000000000e+03,1.871802158335431159e+02,5.954160068315096210e-04,4.671868138700211830e+02,5.904349562448372524e-04
2.425000000000000000e+03,1.862469731897252814e+02,4.311923815992695780e-03,4.237987689169755186e+02,7.154721282094289505e-04
6.213000000000000000e+03,1.854226728281884675e+02,6.969726787028853636e-04,4.340462853704160580e+02,6.398474921860994140e-04
3.382000000000000000e+03,1.849434269199979894e+02,9.022701770542080387e-04,4.169326212961746023e+02,7.139510292997499046e-04
3.634000000000000000e+03,1.845806541528096432e+02,4.176469700137274040e-03,4.144200670583236388e+02,6.800069177897119944e-04
5.000000000000000000e+00,1.828774513807662174e+02,1.583693497330880854e-03,4.373187152014157277e+02,6.014509770938159146e-04
5.059000000000000000e+03,1.826823282465155955e+02,2.726036512019306118e-03,4.863995561130933538e+02,7.469769548291020677e-04
5.935000000000000000e+03,1.814229009765637670e+02,4.982401219836360287e-04,4.240308682686301722e+02,7.773151820646917671e-04
2.475000000000000000e+03,1.801113025358646098e+02,2.149996241471099565e-03,3.998343298215816048e+02,6.984094590852507048e-04
5.043000000000000000e+03,1.800161897952589811e+02,4.590377311587765657e-04,4.026380457434325990e+02,7.438450665080488826e-04
6.981000000000000000e+03,1.795901342630153579e+02,1.143565170190139141e-03,4.104856093763942226e+02,7.528770435902855645e-04
1.467000000000000000e+03,1.782699654197087966e+02,3.167228652627964379e-04,3.669552717132516477e+02,6.059022070000659194e-04
3.576000000000000000e+03,1.752663293049529329e+02,1.257825248802907272e-03,3.916337597419473582e+02,5.697390273283409667e-04
2.455000000000000000e+03,1.750692339592708322e+02,1.025105287712280329e-03,4.402040766764973796e+02,6.916048652155564955e-04
6.860000000000000000e+03,1.750086401215622232e+02,1.936971481561584234e-03,4.200296492922287825e+02,6.474572614194692337e-04
1.589000000000000000e+03,1.745218657414802124e+02,5.203929134093143857e-04,3.958128505845876930e+02,5.348973632742362117e-04
4.952000000000000000e+03,1.726485847173937600e+02,2.190811373997968853e-03,4.365305680032076907e+02,5.465397132326049951e-04
2.649000000000000000e+03,1.722952954415096087e+02,1.953347321248147684e-03,4.202872414085047126e+02,7.670017200639255971e-04
4.560000000000000000e+02,1.718784909626786259e+02,3.119806427845479672e-03,3.732837034041480706e+02,5.743941088848553318e-04
3.004000000000000000e+03,1.700817469087026552e+02,4.331433588594873346e-03,3.767258334215312630e+02,7.542062577944410630e-04
2.686000000000000000e+03,1.699179523838516559e+02,9.967183470628436948e-04,3.860540330583676791e+02,6.002700420573663488e-04
7.100000000000000000e+01,1.691235198964074868e+02,1.047587197934578447e-03,3.582724802485819851e+02,6.078119861277286136e-04
6.713000000000000000e+03,1.685496659566684627e+02,1.548181635758377186e-03,3.852649865282253927e+02,5.311965802839921369e-04
1.092000000000000000e+03,1.684674272267096171e+02,6.624473706669891087e-04,4.160108089391577550e+02,6.720953308405862043e-04
6.057000000000000000e+03,1.683995791248920284e+02,5.557929810999212962e-04,3.833349874200479803e+02,5.121314404416947054e-04
1.010000000000000000e+02,1.683486494761523034e+02,8.627777293443775457e-04,4.240553016639906900e+02,5.575974559731369145e-04
4.942000000000000000e+03,1.672458676657807359e+02,7.208064627692121074e-04,3.607915153682617415e+02,6.178767675512594803e-04
6.100000000000000000e+03,1.671642740756428509e+02,9.314808949135868583e-04,3.825363159584134678e+02,7.802264456153176157e-04
6.146000000000000000e+03,1.668834549257969400e+02,9.631611381527780931e-04,4.164448702887721083e+02,5.460693809229786450e-04
6.736000000000000000e+03,1.665068502825493226e+02,8.670725126919199329e-04,3.973208284807847690e+02,5.885454699168052263e-04
5.268000000000000000e+03,1.663812830002275973e+02,9.276854527052580792e-04,3.945554645757899266e+02,5.859932333027441332e-04
5.465000000000000000e+03,1.663597800833183555e+02,1.561564033063018563e-03,3.749867661223842674e+02,5.235861460942461141e-04
5.119000000000000000e+03,1.658306711794505759e+02,2.100957618317896101e-03,4.033474769421239898e+02,7.614251775182853720e-04
6.690000000000000000e+03,1.654002047576341852e+02,7.582363150713367734e-04,3.526548441548757182e+02,5.636795710548739421e-04
1.324000000000000000e+03,1.652956965764686004e+02,1.619871730306109365e-03,3.918584293443274760e+02,4.952591273358421297e-04
3.605000000000000000e+03,1.611070611443848009e+02,6.333294999310229781e-04,3.391741252135116156e+02,6.040870624260249663e-04
6.627000000000000000e+03,1.596802362314441837e+02,1.175668722449387795e-03,3.682374238397198951e+02,5.647969652411756209e-04
1.718000000000000000e+03,1.591905335455059571e+02,5.016321677343687233e-04,3.479402972146648949e+02,5.927135452925288246e-04
5.200000000000000000e+02,1.590136410816288617e+02,3.220658663038612345e-04,3.756532983123688609e+02,6.135046486832780588e-04
1.104000000000000000e+03,1.586874361734450645e+02,2.360333889789223254e-03,3.379930771939756937e+02,5.072296844209461244e-04
6.734000000000000000e+03,1.581734973413255432e+02,1.266481223938059359e-03,3.651918988238334123e+02,5.312764962113634623e-04
2.081000000000000000e+03,1.580606654812700640e+02,9.579857395098323415e-04,3.374083599972551610e+02,5.377654738767951702e-04
3.836000000000000000e+03,1.567388919429844520e+02,8.115458951966938962e-04,3.663468739418867131e+02,4.285698929640373582e-04
4.905000000000000000e+03,1.548884186651732193e+02,2.406908115149240975e-03,3.630914950407412789e+02,5.555328182485789936e-04
1.522000000000000000e+03,1.548860083818873932e+02,1.560068355610787520e-03,3.603289565872471485e+02,6.016431780897038041e-04
1.614000000000000000e+03,1.538562026774337426e+02,6.014979183164684317e-04,3.643272988651924607e+02,5.311156929412008112e-04
7.118000000000000000e+03,1.525657780749928918e+02,4.642984228258920619e-04,3.644560262326701263e+02,5.032769928441112707e-04
2.291000000000000000e+03,1.523911498566315004e+02,1.358704830190825014e-03,3.345222927261638688e+02,5.004988888428887677e-04
4.019000000000000000e+03,1.517396828123230250e+02,8.740363277163100538e-04,3.738242610194174063e+02,6.134987087858749088e-04
4.030000000000000000e+03,1.515973973061818754e+02,1.023136280996758641e-03,4.156115307762332804e+02,5.318061181166841957e-04
5.909000000000000000e+03,1.508464882353749488e+02,2.018349868172097266e-04,3.256341658437190176e+02,4.794137442169775260e-04
4.454000000000000000e+03,1.508283097487546911e+02,9.636012371040072371e-04,3.348487107181169904e+02,4.894106855509662742e-04
8.600000000000000000e+02,1.506902069195062381e+02,6.135973112346519969e-04,3.870368123457440106e+02,5.159483669338560353e-04
2.670000000000000000e+02,1.490753483924509055e+02,2.038471429044035575e-03,3.858151757050172819e+02,4.949944166940825705e-04
5.817000000000000000e+03,1.484827290119657164e+02,3.498735600696592724e-04,3.204772170926289050e+02,5.631016362841024343e-04
6.869000000000000000e+03,1.483397248318985078e+02,1.698689543535215722e-03,3.207335878985192039e+02,4.054967424427819312e-04
3.212000000000000000e+03,1.475006634530753047e+02,1.315717436861592793e-03,3.376499174697023022e+02,4.265154566332241036e-04
3.502000000000000000e+03,1.472526616378233371e+02,1.448993222266218000e-03,3.576995311865611029e+02,5.233499623854569096e-04
2.530000000000000000e+02,1.463713647123919372e+02,3.155739338694241343e-03,3.447555856444017763e+02,5.393299621871320117e-04
5.670000000000000000e+03,1.463585598135086627e+02,1.443735896005502893e-03,3.134121296670940069e+02,4.955324397917839621e-04
8.670000000000000000e+02,1.462591441368672065e+02,1.547414238460066141e-03,3.093771414421603367e+02,3.747095604239728331e-04
3.446000000000000000e+03,1.459755616993241745e+02,1.330799284900073282e-03,3.009214119705828807e+02,4.396349069041115406e-04
3.154000000000000000e+03,1.421780346332390081e+02,5.063532974692920054e-04,3.250650844599188645e+02,5.598935112346115029e-04
5.587000000000000000e+03,1.417419391208551929e+02,1.199323311370762693e-03,3.227144146488360548e+02,3.873688093274898136e-04
2.820000000000000000e+02,1.413613987843788777e+02,1.605620110585359106e-03,2.779561181682774418e+02,5.159438021622222157e-04
1.642000000000000000e+03,1.392995439249121148e+02,1.805530779364028244e-03,3.197480889338391421e+02,4.543739524737596888e-04
7.980000000000000000e+02,1.392112540758808734e+02,1.736069507151694362e-04,6.686554527016501197e+02,1.886874788257263472e-03
2.150000000000000000e+03,1.379134975361079398e+02,2.183354531761339586e-03,3.573275549910271707e+02,5.108675498877053838e-04
7.101000000000000000e+03,1.354058306887334027e+02,1.071322189607945216e-03,3.055717132135062002e+02,3.708970371023463382e-04
2.493000000000000000e+03,1.342896722779888705e+02,1.298834522584597353e-03,3.216785933516749765e+02,4.833472197457606696e-04
6.955000000000000000e+03,1.339516495531771341e+02,7.296878872865604363e-04,2.861888327650578958e+02,4.124341048764055087e-04
3.310000000000000000e+03,1.310861286874385883e+02,1.009862178029437155e-03,2.986682311819135975e+02,3.674112379847860083e-04
3.246000000000000000e+03,1.286351130884917779e+02,1.493061918144237459e-03,3.191987432721846289e+02,4.075716902129122333e-04
2.895000000000000000e+03,1.286029036567770731e+02,1.969487378843758248e-03,2.904823947688837507e+02,4.480275425064113607e-04
4.380000000000000000e+02,1.270416272534644975e+02,1.038794922687138501e-03,1.136296905439373631e+03,4.291713118605117866e-03
1.313000000000000000e+03,1.238555866992009697e+02,1.268360924142750449e-03,2.649154840868592373e+02,4.577679211258408958e-04
3.295000000000000000e+03,1.221386122932961200e+02,3.315237638436319720e-04,2.619556207227484492e+02,4.154155700197010160e-04
4.658000000000000000e+03,1.210907311971977691e+02,7.103804042727103994e-04,2.509809468584488457e+02,3.598894243475012663e-04
3.501000000000000000e+03,1.203322152169365040e+02,4.126929035358418334e-04,2.652731514785710942e+02,4.538289213883404949e-04
2.047000000000000000e+03,1.198391588476485623e+02,1.991846121283319566e-03,2.628521118002882417e+02,4.512680596947249152e-04
5.616000000000000000e+03,1.198290621297713869e+02,1.237949058900622351e-03,2.462393888194807801e+02,4.433137778904077710e-04
5.920000000000000000e+02,1.182849831663900488e+02,5.931399766633182677e-03,1.778841394912019041e+03,1.169901674494794319e-02
1.776000000000000000e+03,1.180918309448357491e+02,2.599173165373651166e-03,2.653572303658902456e+02,4.042377804814136551e-04
3.863000000000000000e+03,1.173557975834273179e+02,1.527717198992415424e-04,5.575767040584808001e+02,1.892118778676886350e-03
7.950000000000000000e+02,1.162712115504338186e+02,2.610664727770418102e-03,2.886934785557984355e+02,5.959319451085763174e-04
5.366000000000000000e+03,1.140111259354890763e+02,1.206866251199323293e-03,2.760821086072608068e+02,4.743874943483791773e-04
1.153000000000000000e+03,1.138745784573460753e+02,7.647136921047363502e-04,2.351420645312768158e+02,3.455360344517812376e-04
3.635000000000000000e+03,1.130028121191261192e+02,1.378711049210969413e-03,2.467410257223353938e+02,3.201352062651971800e-04
1.042000000000000000e+03,1.126341663224938827e+02,1.244889055406264971e-03,2.597016883708876094e+02,3.857789356114341172e-04
2.549000000000000000e+03,1.113528300839456193e+02,5.711431604964713410e-04,2.455403845396525924e+02,3.018633595381555205e-04
2.776000000000000000e+03,1.111059305107218051e+02,4.321708938817330685e-04,2.784015271976931558e+02,4.166842734887250040e-04
4.207000000000000000e+03,1.109909109153724245e+02,4.375768476849592405e-04,2.588237312517775308e+02,3.854522709136225310e-04
2.695000000000000000e+03,1.096882315354006323e+02,2.454888315884232630e-04,2.303932649956506111e+02,2.740787240322693883e-04
3.852000000000000000e+03,1.082978007325993985e+02,6.361963816276122209e-04,2.839463819046855519e+02,3.407074387681411666e-04
3.185000000000000000e+03,1.061443273036558281e+02,1.427008347472163031e-03,2.289541123677373093e+02,3.879234520649992371e-04
4.349000000000000000e+03,1.048593831119293185e+02,1.513106577812256765e-03,2.492306941585317759e+02,4.086745719755810317e-04
6.631000000000000000e+03,1.027880507260012877e+02,3.215959346587121204e-04,2.469291800363866400e+02,2.557416511119566449e-04
4.272000000000000000e+03,1.020355168246541808e+02,7.952693201335512109e-04,2.250446982948631387e+02,2.740961333094593774e-04
4.815000000000000000e+03,1.019863402991953905e+02,7.090906164036432993e-04,2.208952632233061877e+02,3.104915290715207850e-04
5.572000000000000000e+03,1.019197965736007063e+02,8.743183045465624612e-04,2.257982894300964176e+02,3.194934925169253133e-04
5.470000000000000000e+03,1.017532037729356489e+02,1.367617466021629931e-03,2.086776623360954375e+02,3.546062843576730278e-04
5.987000000000000000e+03,1.014268513976213058e+02,3.200595407852414908e-04,2.065617811767876617e+02,3.223002531455116879e-04
5.140000000000000000e+03,1.012653698483493514e+02,3.920883077171238265e-04,2.445646744761329501e+02,3.783041154135374936e-04
5.663000000000000000e+03,1.006983708896721339e+02,7.738004109517943475e-04,2.308736928424546591e+02,2.823483262375365795e-04
2.506000000000000000e+03,9.876815212422876300e+01,1.407674444383900589e-03,2.347746389088372325e+02,3.592486895647942083e-04
2.853000000000000000e+03,9.862820575449342186e+01,6.735382115649750671e-04,1.940096936223407056e+02,2.158798662285798978e-04
6.984000000000000000e+03,9.821567556477971550e+01,8.006413780196824448e-04,2.227550433733360649e+02,3.044389316871160488e-04
5.511000000000000000e+03,9.698203186057537550e+01,2.457066754547674280e-03,2.404219758979303947e+02,5.149386803744924719e-04
3.223000000000000000e+03,9.644232439466631490e+01,1.847349552889533935e-03,2.138461612004609549e+02,2.982819359437801732e-04
3.508000000000000000e+03,9.636588373556904230e+01,1.732687784863650316e-03,2.415394195542650095e+02,4.908046873335404105e-04
6.695000000000000000e+03,9.559976354453834801e+01,1.332196578002286342e-03,2.196230711526230266e+02,3.470054230368873694e-04
4.901000000000000000e+03,9.488794158750009444e+01,8.360310781590015068e-04,2.002539449912549969e+02,3.548755711210602680e-04
1.019000000000000000e+03,9.384017643975217027e+01,2.934309208127859527e-04,1.982089836740224769e+02,2.877824864988056406e-04
5.775000000000000000e+03,9.345240054276472108e+01,3.075628755796019258e-04,2.042663785110476624e+02,2.534863728034332303e-04
8.690000000000000000e+02,9.336034919581064173e+01,6.959930546374928830e-04,2.074609192553197659e+02,2.995382632596345959e-04
4.299000000000000000e+03,9.291743440475761417e+01,7.660002464483460765e-04,1.830513386614339595e+02,2.330563155818805192e-04
4.390000000000000000e+02,9.233243024342544913e+01,8.939755722432589412e-04,2.092607730223862461e+02,3.147142705330080057e-04
1.824000000000000000e+03,9.064450483077565934e+01,8.914635753564870623e-04,1.742941987063137219e+02,3.637346609424398818e-04
2.310000000000000000e+02,8.916086569118868965e+01,6.162640054134589001e-04,2.050436558772992441e+02,2.691565300315210021e-04
5.293000000000000000e+03,8.841669484398420309e+01,2.184924006400224515e-03,2.154484697478728208e+02,3.318954966052853968e-04
5.591000000000000000e+03,8.840645035676207897e+01,8.283513012710161209e-04,1.988911897924622565e+02,3.188566634874070082e-04
6.423000000000000000e+03,8.763247864283690092e+01,7.359908352637122052e-04,1.739279549781281276e+02,2.466110546318674309e-04
2.400000000000000000e+03,8.751375682066125705e+01,2.506735189524501623e-04,2.014632065581668598e+02,3.072750037237496359e-04
6.250000000000000000e+02,8.742689719058311937e+01,1.129399497287055182e-03,1.978010314571281469e+02,2.768147445508126691e-04
6.397000000000000000e+03,8.597034333830342234e+01,1.110018483152448330e-03,1.861976055840087270e+02,2.658034410374309170e-04
1.244000000000000000e+03,8.400155499111671986e+01,2.494927649028350677e-03,1.946845898556600503e+02,3.228354997035478495e-04
4.596000000000000000e+03,8.398344414385324797e+01,2.219924418777099442e-04,1.895724345865927774e+02,3.194709063855934541e-04
6.774000000000000000e+03,8.377270361317351899e+01,4.867023839764451389e-04,1.903007364253404319e+02,2.326563397862527129e-04
4.220000000000000000e+03,8.374921283860757626e+01,7.942588801415897070e-05,4.627507899277086381e+02,1.215424828411049499e-03
2.509000000000000000e+03,8.300728662932378654e+01,1.831253252271963490e-04,1.960424137420124850e+02,2.465992035892022069e-04
5.789000000000000000e+03,8.269588697789647824e+01,4.679885578724827123e-04,1.792919001603780771e+02,2.848196324485136564e-04
5.431000000000000000e+03,8.250869028694292240e+01,5.146842678566455626e-04,1.943064962836103575e+02,2.328121220884633825e-04
3.657000000000000000e+03,8.218270192924296680e+01,5.389793644098972002e-04,1.898943838711191745e+02,2.882880536164447683e-04
1.662000000000000000e+03,8.195966801269713642e+01,3.557589144762036558e-04,1.990122884080920471e+02,2.342792384845390264e-04
4.860000000000000000e+02,8.157979040061565001e+01,4.424355479830400497e-04,1.909133127281114071e+02,2.110768603653630021e-04
1.240000000000000000e+03,8.143386615290361874e+01,4.471182692843648642e-04,1.884475929255949040e+02,2.473807147244265134e-04
6.576000000000000000e+03,8.070949658839785457e+01,8.770940166654780544e-04,1.678121546846676324e+02,2.756415067976275991e-04
3.592000000000000000e+03,8.014041453653307201e+01,5.283587751966432444e-04,1.767181384545879155e+02,2.904004423125978009e-04
2.536000000000000000e+03,7.994998751432174799e+01,2.459709457795965443e-04,1.903279572965745956e+02,2.321466606948883896e-04
1.303000000000000000e+03,7.957516447782370506e+01,6.727065859076576974e-04,1.752702166500713190e+02,2.571307793689378758e-04
6.779000000000000000e+03,7.875207409641328127e+01,9.764447856185419321e-04,1.565281261440148057e+02,2.337769081251939868e-04
7.004000000000000000e+03,7.777921903722800323e+01,7.740450557634811872e-04,1.877355452408141332e+02,2.041801676113991389e-04
6.700000000000000000e+03,7.754491265585920701e+01,3.029132735138793074e-03,1.667015568976677287e+02,3.125051347901770978e-04
5.768000000000000000e+03,7.699159334224526674e+01,3.397339819867149194e-04,1.543677074016892448e+02,2.401409569044081840e-04
6.526000000000000000e+03,7.644786300783792399e+01,1.513022001022273780e-03,1.752065781874793231e+02,2.876652287847078038e-04
1.519000000000000000e+03,7.537184263975333920e+01,2.910422089056106747e-04,1.599919638013378460e+02,2.301142094805824702e-04
7.390000000000000000e+02,7.536717276053592229e+01,1.340995130601405115e-03,1.629120477620950282e+02,2.914091195255586277e-04
4.431000000000000000e+03,7.343451452462221596e+01,2.422584855816911186e-04,1.678627654268005642e+02,1.491672764648986529e-04
4.897000000000000000e+03,7.109380947575940013e+01,2.750749434537840530e-04,1.403067628462679295e+02,2.585845832362187774e-04
6.210000000000000000e+02,7.094959118331472325e+01,2.983222886527556227e-04,1.574645034723996559e+02,1.891156549876542097e-04
2.451000000000000000e+03,7.077881550472632455e+01,1.947436916079559955e-03,1.737960574875179134e+02,3.321330134712158688e-04
6.868000000000000000e+03,7.011589167778473097e+01,1.019396693614717009e-04,1.554134273945241773e+02,1.447049229307449604e-04
9.640000000000000000e+02,6.945223084628058530e+01,7.773193460830572343e-04,1.675029047754119347e+02,2.151713055363533287e-04
3.750000000000000000e+02,6.935745153777237704e+01,5.229538468594724593e-04,1.606412409685282228e+02,2.260958755062768472e-04
6.285000000000000000e+03,6.871870226079379051e+01,4.006187579528190440e-04,1.603991457001607159e+02,2.654026120894065893e-04
2.375000000000000000e+03,6.790840133500879006e+01,1.211102197680544168e-03,1.533198062244413222e+02,2.846981545930991767e-04
6.991000000000000000e+03,6.762977401012604162e+01,4.360098884763322796e-04,1.458475090607260540e+02,2.145060429425963062e-04
2.879000000000000000e+03,6.751722802845741001e+01,7.975292143823739955e-04,1.478429751382942925e+02,1.933751649150281914e-04
8.730000000000000000e+02,6.654973718873004884e+01,3.861586633811973034e-04,1.590321109743625811e+02,2.295726989320024335e-04
2.080000000000000000e+02,6.425411551045937131e+01,6.531953425238848756e-04,1.263302847469449546e+02,2.007766966080923668e-04
4.816000000000000000e+03,6.363928479382364856e+01,7.440423154888911855e-04,1.435099284331740535e+02,1.853229953494475019e-04
5.955000000000000000e+03,6.272912050914280258e+01,1.383129618801490169e-04,1.403412230592896606e+02,1.605235764431134653e-04
3.983000000000000000e+03,6.138155516368757958e+01,6.502358033707631270e-04,6.388637169887684877e+02,3.033655243030803066e-03
3.012000000000000000e+03,6.080858293400969927e+01,5.041664626200924185e-04,1.260484790415954564e+02,2.205202840824054228e-04
2.461000000000000000e+03,5.886158193134235717e+01,3.768063135107414395e-04,1.301573944808281169e+02,1.603710875893462576e-04
1.853000000000000000e+03,5.871376834960668134e+01,1.661540429812744999e-04,1.283346214257026361e+02,1.834415218901862125e-04
1.981000000000000000e+03,5.850800829260460034e+01,1.436915818357828857e-04,1.304039090423916321e+02,2.095584052530482567e-04
1.941000000000000000e+03,5.819245083315306744e+01,3.987086473127807477e-04,1.262668941394831563e+02,1.869410971916397846e-04
3.548000000000000000e+03,5.746153802807297950e+01,3.557404690438405572e-04,1.149918268323740165e+02,1.792497237707199565e-04
1.869000000000000000e+03,5.686820886987879220e+01,2.646829370031995019e-04,1.091743957805545620e+02,1.554735903584891657e-04
2.611000000000000000e+03,5.620610600252415168e+01,2.484440415020263250e-04,1.211698984960747083e+02,1.675289335859748974e-04
5.200000000000000000e+03,5.599890503139683062e+01,1.023889423579791300e-03,1.274437062865326169e+02,2.380350160272554170e-04
3.584000000000000000e+03,5.547645111060117529e+01,3.645417516790265501e-04,4.599138889559052927e+02,1.766447002794898193e-03
4.650000000000000000e+02,5.507326892108369520e+01,5.226242164290169226e-04,1.140486933601370509e+02,2.424705120255381805e-04
1.930000000000000000e+03,5.421685117526697439e+01,3.369274263763315886e-04,1.104562908916266082e+02,1.616819553349590620e-04
6.245000000000000000e+03,5.310944165366345260e+01,1.874625202442296694e-04,1.209392615872242658e+02,1.580170811091985287e-04
1.370000000000000000e+03,5.305662012754422108e+01,2.550395894406055734e-04,1.201651663219372921e+02,1.478255646319667803e-04
7.028000000000000000e+03,5.295297556641572356e+01,6.811992831155428991e-04,7.497500295934595442e+02,3.610892822801466378e-03
6.900000000000000000e+03,5.195719530568447198e+01,1.139857515488047708e-04,1.158073822694175021e+02,1.548735877302882444e-04
2.224000000000000000e+03,5.178419556319364858e+01,2.765401368135392084e-04,1.071908963448985332e+02,1.474368335639454370e-04
1.268000000000000000e+03,5.152208812676721550e+01,2.845585974925506838e-04,1.153088895594237613e+02,1.652819715125657671e-04
9.000000000000000000e+01,5.150308881754695278e+01,2.428695274897688463e-04,1.208990408426383709e+02,1.669815537148512522e-04
3.670000000000000000e+03,5.091331162819168554e+01,6.785158805573946643e-04,1.221346568513973949e+02,1.364876500310601435e-04
6.725000000000000000e+03,5.076818807221680885e+01,5.503348077959969564e-04,1.242557219942859774e+02,1.941200387158265430e-04
1.811000000000000000e+03,5.029921352256307188e+01,4.210898015849931855e-04,1.107035693574000561e+02,1.599547729480618860e-04
5.420000000000000000e+02,4.990117522081613544e+01,5.302238473623161873e-04,1.085286131980083582e+02,1.307832017166063476e-04
7.093000000000000000e+03,4.976229118798309514e+01,4.397383531556739856e-04,1.071666798968818739e+02,1.520073123031990723e-04
2.279000000000000000e+03,4.876080128315538786e+01,6.118551689660381172e-04,1.074279228918178148e+02,1.734310001669144019e-04
1.753000000000000000e+03,4.829061360299171213e+01,7.248115194259818371e-04,1.049892912582423179e+02,1.337181173642115121e-04
2.727000000000000000e+03,4.776960699768256546e+01,1.988690674901661076e-04,1.036997364825762560e+02,1.262178749117825636e-04
1.693000000000000000e+03,4.709139707877990588e+01,2.521005774169230340e-04,1.016713923570729179e+02,1.344563315368308407e-04
6.885000000000000000e+03,4.679566838126820016e+01,1.257108101220586979e-04,1.148274840295439674e+02,1.301451980735033405e-04
7.042000000000000000e+03,4.670166779408845770e+01,5.048935087395615105e-04,6.563588844531044515e+02,1.690270360119457051e-03
7.143000000000000000e+03,4.662785975366843871e+01,2.993368371779072203e-04,9.365440541287979670e+01,1.513683091902220956e-04
4.762000000000000000e+03,4.642692510471482592e+01,8.909369859019321649e-05,1.453529128851650114e+02,2.004395902896410702e-04
2.391000000000000000e+03,4.640357973433275163e+01,2.487437130391356027e-04,3.148281554463295606e+02,1.173461357799564274e-03
4.123000000000000000e+03,4.580969647132862121e+01,1.383746363913049423e-04,1.058404902930717668e+02,1.123888919880215265e-04
1.192000000000000000e+03,4.571985207838152832e+01,4.523221256832235640e-05,4.047917797885430105e+02,8.546389094713761512e-04
5.459000000000000000e+03,4.491667307200174264e+01,2.222190666617087241e-03,9.155487246674258586e+02,3.083443021606975271e-03
5.458000000000000000e+03,4.476294432726552941e+01,4.746933835924611162e-04,9.633497815680910037e+01,1.361852862406380559e-04
1.087000000000000000e+03,4.449700771749884609e+01,3.031982634785692233e-04,1.033067014643904002e+02,1.662141361223507278e-04
6.660000000000000000e+02,4.439638176472263353e+01,2.148155206808956524e-04,9.760472153094802650e+01,1.591314187234134641e-04
5.703000000000000000e+03,4.398576097817507957e+01,1.645165417983092285e-04,1.014987032549822175e+02,1.308788161551975593e-04
9.510000000000000000e+02,4.321626071724732299e+01,2.711208970470855044e-04,9.214112269777423592e+01,1.072960587767853973e-04
9.000000000000000000e+00,4.054452576911961614e+01,9.408261166497294207e-05,8.826914492251628985e+01,8.861219669529401578e-05
2.550000000000000000e+03,4.044662310962853269e+01,8.588951054566634844e-05,2.033610678304605983e+02,9.586531282221945382e-04
2.710000000000000000e+02,3.989604117478204159e+01,2.760511177168152217e-04,9.246906146004948823e+01,1.372949754811896570e-04
5.238000000000000000e+03,3.905814996085892687e+01,3.186188493657118420e-05,1.568229597191538289e+02,3.769877203139386100e-04
1.076000000000000000e+03,3.805287508267629448e+01,5.570405418632099967e-03,1.286185584505142288e+03,9.038655858052649372e-03
3.319000000000000000e+03,3.706569657254724603e+01,1.589120196999305016e-04,7.771562378149180006e+01,8.610984447002031764e-05
6.700000000000000000e+02,3.602327246351229917e+01,8.981019613627803163e-05,7.364898405171739171e+01,1.132243734270749463e-04
6.938000000000000000e+03,3.553201616449685929e+01,4.595313240908204937e-05,7.708384381955626452e+01,8.048709287825316072e-05
6.970000000000000000e+03,3.549814113429093254e+01,5.552714238470027189e-04,7.301547927620397616e+01,1.160355492539542042e-04
2.757000000000000000e+03,3.547664661214535897e+01,1.353215981181636813e-04,7.541191678212193494e+01,9.401362951483824314e-05
3.101000000000000000e+03,3.524545848789072977e+01,1.474224473415656719e-04,7.256394480964966931e+01,8.699812766243140353e-05
2.519000000000000000e+03,3.511449099699357390e+01,8.451801408491095113e-05,7.536048854458086055e+01,8.637316296363769597e-05
3.306000000000000000e+03,3.447702676725232607e+01,1.593697680370116459e-04,7.546044039124839742e+01,8.371240848881321037e-05
3.498000000000000000e+03,3.442263167986799743e+01,8.508465201164447725e-03,1.645677397002893713e+03,1.277689882553000728e-02
1.371000000000000000e+03,3.433315694220253533e+01,7.496955173660020742e-05,7.201945995977169446e+01,1.066290947854809762e-04
5.524000000000000000e+03,3.418590434776790232e+01,1.874216445332834411e-04,7.091257502280606673e+01,1.210889597870142866e-04
2.474000000000000000e+03,3.415142174004208186e+01,1.286072862815183587e-04,7.014195669510671394e+01,1.019123088890489106e-04
5.392000000000000000e+03,3.406297300873918488e+01,3.686630071156092397e-04,6.888613769477240112e+01,9.793313488479202830e-05
1.376000000000000000e+03,3.363103560654835888e+01,1.257112080252307520e-04,8.171564952295072715e+01,8.868894375384811664e-05
6.804000000000000000e+03,3.311568454139887763e+01,1.083291026566287263e-03,6.833532564675616641e+02,2.461980720379002875e-03
1.052000000000000000e+03,3.285980398446837825e+01,1.866861481380316346e-04,7.539368838375561666e+01,8.086383023344320719e-05
5.410000000000000000e+03,3.262610323694728010e+01,1.861085933555360519e-04,7.036765027173694875e+01,1.065046232587066029e-04
4.230000000000000000e+03,3.242097990964541765e+01,4.819854992095396330e-04,6.464829484558143236e+01,8.652418530973146789e-05
2.102000000000000000e+03,3.169029824775514825e+01,1.759781127909614679e-04,7.033657741193729862e+01,9.399043381478194837e-05
7.330000000000000000e+02,3.104992660007675909e+01,2.848491187096614005e-04,7.678098954727816761e+01,1.142591990708196887e-04
7.096000000000000000e+03,3.046142254125050641e+01,4.011306692269147461e-03,1.512095959084345623e+03,4.565835438708479126e-03
1.443000000000000000e+03,2.900029166789715163e+01,1.363940196725959588e-04,6.218171079631254372e+01,6.403638592316837630e-05
4.320000000000000000e+03,2.898132450822701855e+01,1.461040702448092191e-04,6.582263206236845576e+01,7.303774719447892285e-05
1.342000000000000000e+03,2.789530543868746904e+01,2.180710918921956957e-04,5.809004806368000828e+01,8.883267535237599822e-05
3.055000000000000000e+03,2.614891060559761726e+01,1.082316630143090238e-04,5.712420223190380852e+01,7.829205790357542322e-05
1.831000000000000000e+03,2.570528020120947943e+01,6.038161862032355632e-05,5.772614696711288929e+01,6.083713525365347206e-05
2.126000000000000000e+03,2.370710039938177971e+01,8.665466495891746210e-03,1.497753307148323302e+03,1.072713534286708938e-02
6.677000000000000000e+03,2.369780353021412367e+01,5.708189118618838074e-05,4.962289206567319866e+01,3.926836866920436759e-05
5.090000000000000000e+02,2.283116797825504207e+01,4.295955516192894672e-05,5.184023535088902435e+01,5.952350457831764467e-05
1.217000000000000000e+03,2.218401020186074746e+01,3.713450323556952880e-05,4.973396982302505620e+01,5.548947026005092160e-05
6.648000000000000000e+03,2.197066476873241569e+01,8.339031522117437126e-05,4.770807326641543966e+01,7.359811892740681792e-05
2.290000000000000000e+03,2.195640683795151560e+01,1.666893733125616658e-04,5.060938851393572691e+01,5.226141396752844890e-05
9.540000000000000000e+02,2.188786374686353042e+01,3.776666090618717962e-03,1.498241299176212351e+03,4.112543798879971478e-03
4.936000000000000000e+03,2.146073632561985534e+01,7.979760046466045226e-03,1.582197773491519229e+03,7.638826862759556108e-03
1.280000000000000000e+02,2.121946920887696209e+01,3.972951775416001113e-04,1.766329652580195102e+02,7.468356211946232479e-04
4.508000000000000000e+03,2.107253415873601909e+01,8.745714057964909050e-04,3.688555365738183127e+02,1.398438736560167787e-03
6.905000000000000000e+03,2.075015359116012448e+01,1.082764424064456296e-04,4.108605111386363973e+01,5.689212498607773826e-05
2.110000000000000000e+03,2.060104683750237342e+01,3.324713255128339869e-03,8.558990748047262969e+02,3.707960451019763366e-03
3.707000000000000000e+03,2.012767286113828646e+01,5.262722725495161402e-03,1.312955003875690181e+03,7.425988520549349839e-03
6.321000000000000000e+03,1.998534978815139596e+01,8.198843217916454125e-05,4.501338108465493804e+01,6.446114782238735179e-05
1.786000000000000000e+03,1.963570605583024431e+01,2.668922367378040103e-03,1.367901015407063142e+03,2.775181718413660421e-03
1.450000000000000000e+03,1.917865099256945172e+01,1.188883794086833081e-04,4.138457268981897386e+01,5.084466482340541663e-05
1.370000000000000000e+02,1.882677698071070083e+01,2.165298815073381052e-05,4.471829640890176449e+01,6.728467619601018407e-05
2.559000000000000000e+03,1.860419770139559859e+01,5.132901482402865148e-05,4.135646975427598449e+01,4.060868590840768945e-05
1.005000000000000000e+03,1.804525814454914467e+01,3.430183645427895434e-03,1.502110374685310717e+03,5.336019343620664046e-03
3.569000000000000000e+03,1.652603435226161466e+01,5.487409120442909692e-05,3.098774554532446857e+01,4.568398927622713577e-05
3.469000000000000000e+03,1.635544876700253525e+01,3.766949577360302701e-03,1.176475246461951429e+03,4.291470202344585885e-03
4.594000000000000000e+03,1.630066370273256382e+01,4.198248288632190379e-05,2.978401199692227763e+01,3.986007512051673512e-05
2.429000000000000000e+03,1.629125273717951217e+01,1.624645791301944245e-04,5.267243940059175884e+02,9.473450588689796142e-04
5.564000000000000000e+03,1.584197993575659424e+01,7.067224404508465449e-05,3.524675793011905256e+01,4.454832536945638817e-05
6.610000000000000000e+03,1.508590372926820500e+01,2.887390523524116664e-05,3.025083833933648947e+01,2.971125383778782256e-05
1.309000000000000000e+03,1.497680865161496833e+01,1.061979904719011314e-05,3.302432734346796650e+01,3.643292533813931658e-05
3.629000000000000000e+03,1.466931300887415190e+01,6.169606463883729232e-05,1.739409428412659508e+02,3.751586993903718447e-04
1.932000000000000000e+03,1.352051277748526381e+01,1.397139119363172274e-03,1.434353832785810482e+03,1.415806885958366271e-03
6.590000000000000000e+03,1.341146495080446144e+01,1.902316641014259731e-05,2.810996824575070718e+01,3.121928875934799652e-05
1.302000000000000000e+03,1.274319608470444187e+01,4.148736945365925281e-05,2.667975626728247818e+01,3.343704458460085483e-05
1.020000000000000000e+02,1.249188724401600226e+01,1.209132552025154168e-05,2.572818726466848460e+01,2.600485144751043856e-05
7.760000000000000000e+02,1.220538329277054146e+01,1.046036759622770493e-05,2.626354816785985946e+01,2.938917579738130708e-05
1.951000000000000000e+03,1.176549734118879620e+01,5.415957780117197293e-03,1.083558631110962096e+03,6.370744047089127969e-03
6.493000000000000000e+03,1.174269826237406988e+01,6.656892721461131425e-05,2.556236268137978129e+01,4.183710066779037368e-05
7.122000000000000000e+03,1.156269480129866523e+01,1.252492433435721465e-05,2.409545798904730773e+01,3.276695679254745754e-05
2.937000000000000000e+03,1.136165891951522688e+01,6.963691282730804205e-06,2.342416823558890115e+01,2.029462854230231796e-05
3.437000000000000000e+03,1.115783114726714054e+01,2.342440899334668255e-03,8.896011677099959343e+02,3.344522318442428189e-03
4.704000000000000000e+03,1.097609579497799182e+01,1.269378755306519229e-05,2.380052966165164108e+01,3.425727183203087107e-05
4.048000000000000000e+03,1.090675913242484896e+01,4.261206610901726722e-06,2.153271215260612692e+01,1.685820648718210969e-05
2.330000000000000000e+03,1.090151341560050646e+01,4.611846200027171975e-05,2.183228056463648770e+01,2.987355218130393979e-05
2.197000000000000000e+03,1.086679692985913093e+01,1.751791547577785841e-04,2.406548601485395977e+02,2.775195559558478703e-04
6.699000000000000000e+03,1.078470749808973750e+01,2.298470646871461935e-05,2.139533511893193207e+01,2.453402813185759433e-05
2.402000000000000000e+03,1.074112367523467704e+01,6.720598294189171712e-05,2.139984563847750465e+01,2.423372309554035724e-05
1.550000000000000000e+03,1.002502852898512664e+01,9.857870562449950501e-06,1.943590261822216902e+01,3.095428854187580589e-05
6.110000000000000000e+02,9.813502634391669588e+00,1.699786460629283420e-03,9.638124349902439008e+02,1.914145707103726826e-03
4.000000000000000000e+00,9.811900790942265971e+00,2.922328658398985746e-05,1.958606308865300250e+01,2.209755730487012487e-05
6.545000000000000000e+03,9.711032570917174311e+00,3.864349747133620158e-03,6.488176362506386567e+02,5.479391328400527381e-03
6.911000000000000000e+03,9.685296723065162539e+00,2.500225262485699615e-05,2.070746399904747292e+01,2.157507619075255207e-05
1.029000000000000000e+03,9.661380931829112839e+00,2.754373145263590785e-05,2.036745308166598178e+01,2.693131000445720747e-05
1.844000000000000000e+03,9.556657102264301429e+00,1.009712678231564875e-05,1.960726601533701796e+01,2.265588504155201100e-05
4.410000000000000000e+02,8.518592902371549869e+00,1.452610351062777602e-03,1.115265883256935695e+03,2.331166592370523694e-03
6.551000000000000000e+03,7.962518543147150574e+00,2.240286105766178121e-03,7.115325948043571316e+02,3.159015088207572583e-03
4.943000000000000000e+03,7.327887530086576895e+00,1.003512618129119398e-02,1.466464291064011377e+03,1.087587194993880867e-02
2.426000000000000000e+03,7.015153422616217327e+00,2.462066824307913761e-03,1.418204128158347430e+03,2.844865464473021917e-03
3.126000000000000000e+03,6.825663749518705359e+00,2.030553419781147713e-05,1.399426623149746440e+01,1.591994522729401666e-05
5.230000000000000000e+03,6.632202952403218887e+00,1.013216951660544656e-05,1.268551665595340872e+01,1.673431239495034797e-05
3.792000000000000000e+03,6.403910309862801853e+00,1.220910974672847726e-05,1.300732029084645625e+01,1.771687366519888272e-05
3.844000000000000000e+03,5.717933700383023066e+00,2.822335831038336163e-05,1.111230179088214065e+01,1.793866174263782535e-05
2.807000000000000000e+03,5.484877353881382867e+00,5.897776193931417786e-06,1.228802797604258146e+01,1.342935620239706941e-05
1.258000000000000000e+03,5.102846933672370078e+00,9.433907485764570985e-03,1.083273954923957035e+03,9.563749958153795749e-03
5.874000000000000000e+03,5.102742814026038687e+00,4.177969756308450903e-06,9.802399391977573373e+00,6.108841656301200872e-06
2.856000000000000000e+03,5.066275551993627779e+00,2.466424684473846572e-03,3.908997047497761628e+02,3.178652057634139775e-03
1.594000000000000000e+03,5.039977261475303116e+00,5.649908658396069795e-03,1.287282750229977182e+03,6.326096191887834418e-03
9.820000000000000000e+02,4.849168305266419843e+00,4.498882879500195478e-06,9.621330902728571388e+00,1.293826701472687482e-05
6.481000000000000000e+03,4.469252487928675244e+00,2.754114648420242627e-03,8.819700097040708897e+02,2.788108768912702252e-03
4.220000000000000000e+02,3.925182865481913197e+00,9.229489221417268833e-06,7.672176604226495833e+00,7.148555453847663694e-06
1.624000000000000000e+03,3.778662468145492337e+00,4.064213456141293233e-06,7.920549434446387593e+00,1.087606945202472879e-05
6.932000000000000000e+03,3.061624143932945685e+00,2.386390571060824936e-06,6.174348334259162741e+00,7.453346560135499631e-06
2.159000000000000000e+03,2.413408856346705544e+00,8.034995173637603932e-03,1.098153602472488956e+03,8.411583012706039600e-03
1.511000000000000000e+03,2.027475297242732122e+00,1.278137614515221414e-03,5.150507287181590073e+02,1.521529204011752134e-03
5.931000000000000000e+03,2.020274886411633553e+00,1.633876544356395015e-06,3.732795141261449512e+00,4.223383682776494557e-06
9.390000000000000000e+02,9.209305476370902577e-01,5.469069055948621794e-06,1.980497378345220660e+00,2.432175085931891590e-06
2.626000000000000000e+03,8.251262364110600878e-01,6.263497587169764881e-03,1.433134769638486887e+03,6.738705366278558914e-03
2.104000000000000000e+03,3.639942491829276094e-01,6.041654587498039718e-07,7.139624411994470732e-01,6.857106406170588527e-07
4.587000000000000000e+03,1.286237065089614051e-01,2.358046369997581717e-08,1.292845786310670986e-01,5.294915880263445794e-06
0.000000000000000000e+00,0.000000000000000000e+00,0.000000000000000000e+00,0.000000000000000000e+00,0.000000000000000000e+00
0.000000000000000000e+00,0.000000000000000000e+00,0.000000000000000000e+00,0.000000000000000000e+00,0.000000000000000000e+00
0.000000000000000000e+00,0.000000000000000000e+00,0.000000000000000000e+00,0.000000000000000000e+00,0.000000000000000000e+00
0.000000000000000000e+00,0.000000000000000000e+00,0.000000000000000000e+00,0.000000000000000000e+00,0.000000000000000000e+00
0.000000000000000000e+00,0.000000000000000000e+00,0.000000000000000000e+00,0.000000000000000000e+00,0.000000000000000000e+00
0.000000000000000000e+00,0.000000000000000000e+00,0.000000000000000000e+00,0.000000000000000000e+00,0.000000000000000000e+00
0.000000000000000000e+00,0.000000000000000000e+00,0.000000000000000000e+00,0.000000000000000000e+00,0.000000000000000000e+00
0.000000000000000000e+00,0.000000000000000000e+00,0.000000000000000000e+00,0.000000000000000000e+00,0.000000000000000000e+00
0.000000000000000000e+00,0.000000000000000000e+00,0.000000000000000000e+00,0.000000000000000000e+00,0.000000000000000000e+00
0.000000000000000000e+00,0.000000000000000000e+00,0.000000000000000000e+00,0.000000000000000000e+00,0.000000000000000000e+00
