2.060000000000000000e+02,4.204052188171458511e+02,1.451843514726937259e-03,1.023607759987483860e+03,1.417430408775622415e-03
6.070000000000000000e+02,3.427436638268228535e+02,2.982403827436783811e-03,7.169669832643203335e+02,8.971014665524415120e-04
5.990000000000000000e+02,3.419360166033252426e+02,2.125975123285683312e-03,8.149736153881890459e+02,1.202128301590660656e-03
7.800000000000000000e+02,3.345836539528048093e+02,3.230945951497673444e-03,8.296039000376991908e+02,1.134152743197068590e-03
1.460000000000000000e+02,3.121682364497710296e+02,1.723725769584008019e-03,7.113255180239376614e+02,1.027159400041797793e-03
1.050000000000000000e+02,2.998307965815672560e+02,3.174545865876777367e-03,7.739757813057306066e+02,1.330564474704786339e-03
1.400000000000000000e+02,2.985448652457665162e+02,1.803845616306062058e-03,7.326868203125332002e+02,8.965095820342307937e-04
2.830000000000000000e+02,2.897328393144887855e+02,1.211570852023942206e-03,7.045938318853984583e+02,9.345767679469695836e-04
9.800000000000000000e+01,2.888432071569582718e+02,2.982985553726459280e-03,7.028405916936151243e+02,9.362999156031361981e-04
1.500000000000000000e+02,2.861640408157274464e+02,2.452373774703196004e-03,6.524989149216966098e+02,8.483802749838784737e-04
3.590000000000000000e+02,2.793636574356449955e+02,1.982533358998976678e-03,6.798840043432982156e+02,8.987656155030736846e-04
3.870000000000000000e+02,2.719861761440964187e+02,2.029955697093616292e-03,6.429088825666364073e+02,8.870357311784044917e-04
2.600000000000000000e+01,2.640746516535756427e+02,1.396435188107470696e-03,6.848646225131687970e+02,8.317885241049002929e-04
4.670000000000000000e+02,2.630155926496735219e+02,3.076380329915934068e-03,6.185345540467967567e+02,7.398254625473263402e-04
5.800000000000000000e+02,2.601939878884011819e+02,3.030130600940202784e-03,6.183894215028428789e+02,7.686153854473443429e-04
3.060000000000000000e+02,2.583836993017642953e+02,1.811286539974813403e-03,6.520318069791871949e+02,9.899863615744836694e-04
4.540000000000000000e+02,2.571298773700920037e+02,3.109698056091253753e-03,5.542494686692961068e+02,7.151432304389813803e-04
1.160000000000000000e+02,2.523922559399838406e+02,2.273772845381318193e-03,6.169341934877653557e+02,8.560347131419521584e-04
4.470000000000000000e+02,2.498242283576523732e+02,1.485248286215373010e-03,6.403673211052432634e+02,5.334873280624875726e-04
4.810000000000000000e+02,2.463513693290156823e+02,2.534212918224778861e-03,5.117823315544384855e+02,6.160508932141878745e-04
1.350000000000000000e+02,2.462290762366896502e+02,1.364213820397142118e-03,5.370941456489889561e+02,8.360856072835579425e-04
2.730000000000000000e+02,2.445089784839515232e+02,2.300067793272527351e-03,5.046022516147234569e+02,7.616899555957941902e-04
3.980000000000000000e+02,2.436936240059684167e+02,2.723207259112693599e-03,5.698564711909610878e+02,6.627628851481478199e-04
3.500000000000000000e+02,2.392510616046302516e+02,2.827197566689012165e-03,5.117691224092112634e+02,7.930708385744754787e-04
3.390000000000000000e+02,2.390286035690393192e+02,2.637008416976120879e-03,5.335965526237869199e+02,7.508176180500489424e-04
4.160000000000000000e+02,2.328928510594381294e+02,6.263224831379976109e-04,5.352662561394624845e+02,6.610772209979970697e-04
6.270000000000000000e+02,2.252232977165979833e+02,3.495909245225573090e-03,5.007074532452662083e+02,9.088320107307633258e-04
2.720000000000000000e+02,2.251246721192033817e+02,1.444002265905966085e-03,5.306963881423067733e+02,8.293887726173476173e-04
3.650000000000000000e+02,2.234353328493727417e+02,2.425719353623748999e-03,5.650022149703019068e+02,8.676645052393642133e-04
1.220000000000000000e+02,2.147139981057324576e+02,2.545341193245594016e-03,4.869925063648434502e+02,6.404649354470581249e-04
7.770000000000000000e+02,2.141441378080759819e+02,1.909644643311688263e-03,4.857420139520916109e+02,8.030767896821434677e-04
7.940000000000000000e+02,2.106786487375420052e+02,2.175764561014812901e-03,4.607368076177393164e+02,8.199114328004963870e-04
6.200000000000000000e+01,2.083706525766042432e+02,1.511184144586876594e-03,5.251075211157340163e+02,5.969341343497021812e-04
5.270000000000000000e+02,2.071562737807997792e+02,2.772227535304334217e-03,5.041962935913982164e+02,7.298344278225458960e-04
1.130000000000000000e+02,2.059120377923967453e+02,2.731422500483489564e-03,5.072655468678951252e+02,6.140488267052200818e-04
1.930000000000000000e+02,2.037546492939020482e+02,2.255007980960521425e-03,5.011374058453508837e+02,6.920192015828871990e-04
7.990000000000000000e+02,2.035722451151884229e+02,2.614372599892079811e-03,4.264174148845697800e+02,5.982270700698663624e-04
6.060000000000000000e+02,2.032627969673025063e+02,1.177049326646378239e-03,4.901611485390956204e+02,6.667147081687091123e-04
2.890000000000000000e+02,1.984591820214649545e+02,2.144722608126197784e-03,4.605712645050123228e+02,5.805080927536033879e-04
3.040000000000000000e+02,1.963927535892451886e+02,1.974350322514023016e-03,4.110481116663657986e+02,5.550588447994007739e-04
4.500000000000000000e+02,1.917154497054074511e+02,1.613566013562235408e-03,4.317327863251284157e+02,4.926182245475665272e-04
5.820000000000000000e+02,1.910480108881635033e+02,1.849675214437181614e-03,4.309270174351232754e+02,6.797676493713866990e-04
4.190000000000000000e+02,1.899020477236340696e+02,1.054909508389550651e-03,4.379938115912418652e+02,6.541432632646515489e-04
5.320000000000000000e+02,1.887147028018635240e+02,2.344629615802990182e-03,4.233341688709118102e+02,5.049016765876956827e-04
3.580000000000000000e+02,1.879333492890259834e+02,1.396916249052776882e-03,4.555921520715401130e+02,6.248161347575042438e-04
5.100000000000000000e+01,1.853376046165484183e+02,1.960850706924346844e-03,4.729094280740890781e+02,8.428396189807814106e-04
4.590000000000000000e+02,1.812149954144436492e+02,1.171027479460387023e-03,3.828481691794020207e+02,6.022176428930390950e-04
2.990000000000000000e+02,1.797411821070875249e+02,2.325599096002140074e-03,3.626380265053037419e+02,5.400411301839695092e-04
6.280000000000000000e+02,1.796391835284685783e+02,2.242443454762331305e-03,4.305526404504465745e+02,7.282108751593023089e-04
2.280000000000000000e+02,1.779569459975967334e+02,2.398434743694977632e-03,4.299816733504908370e+02,8.150548837820748189e-04
7.900000000000000000e+01,1.743084962520228487e+02,1.811180212794949104e-03,4.005889142031260803e+02,5.189599054483572853e-04
6.470000000000000000e+02,1.733604755433634637e+02,1.366747888647391537e-03,4.620305538034704682e+02,7.652341256545873742e-04
2.740000000000000000e+02,1.725411997889713973e+02,2.885329818624904254e-03,3.940895768270505073e+02,6.051077510607771751e-04
3.640000000000000000e+02,1.706465286586901300e+02,3.765736179201264935e-03,3.665353179040181431e+02,5.653242052248678854e-04
2.870000000000000000e+02,1.692325418736002405e+02,1.610861364069938149e-03,3.517392280198099002e+02,4.894925894639244037e-04
7.360000000000000000e+02,1.673947245709068454e+02,2.103785495520790576e-03,3.509949927744671072e+02,4.809607634791704584e-04
2.750000000000000000e+02,1.655172960528103943e+02,2.990539250584423828e-03,3.537890222512140213e+02,5.914017807843686622e-04
1.430000000000000000e+02,1.647899509661472450e+02,1.339625081542182832e-03,4.200253781157314847e+02,5.833366091866820560e-04
7.000000000000000000e+00,1.639541574505118717e+02,1.030781303464779926e-03,4.682541561061561310e+02,7.382914520120545995e-04
2.610000000000000000e+02,1.627488026174818003e+02,4.201167153908385611e-03,3.541298649187560841e+02,6.419948442323041883e-04
3.090000000000000000e+02,1.608565070356608544e+02,1.587697292068727820e-03,3.536963922800835576e+02,5.474794819135805684e-04
1.510000000000000000e+02,1.596062347169717555e+02,1.620254624430565423e-03,4.423310088381504670e+02,6.320899314573309290e-04
7.100000000000000000e+02,1.582515651937264920e+02,1.749454968641083255e-03,3.254792837388175144e+02,4.368746093842446358e-04
4.690000000000000000e+02,1.555660105014487726e+02,2.002601544420627624e-03,3.702155691993154392e+02,5.617444603839031811e-04
3.660000000000000000e+02,1.545172976711717183e+02,1.668364571470613541e-03,3.309528526974551710e+02,5.190925155214174075e-04
8.000000000000000000e+01,1.540169939479532673e+02,2.557167315712648679e-03,3.800661784063003097e+02,5.750249900683728150e-04
4.350000000000000000e+02,1.533358065292730714e+02,9.241414569434568821e-04,3.233225076340874580e+02,5.386287309631470873e-04
6.830000000000000000e+02,1.529774079399174127e+02,1.953203273263443701e-03,3.202590322281200201e+02,4.501046097531998078e-04
1.200000000000000000e+01,1.518867349039329895e+02,1.781725933114588697e-03,3.385100377836324697e+02,4.840314728831902891e-04
6.320000000000000000e+02,1.513563993859497430e+02,1.217835200163104202e-03,3.105328464580627497e+02,5.076822999205219799e-04
5.900000000000000000e+01,1.506420032397082309e+02,5.524791367769489592e-04,3.570221133824658182e+02,4.171069696592975590e-04
2.420000000000000000e+02,1.502648799821720615e+02,1.854077157745719680e-03,3.499683819501910307e+02,4.393596435876215159e-04
7.530000000000000000e+02,1.500391762788113965e+02,1.104006065927748111e-03,3.429019587511139093e+02,3.875993029468385951e-04
7.030000000000000000e+02,1.480299072023832991e+02,2.457904928316234552e-03,3.364551974459471353e+02,5.756790366165109862e-04
4.400000000000000000e+02,1.470643296132199396e+02,1.042198136151950214e-03,3.071143827681327707e+02,4.889594906574071384e-04
6.170000000000000000e+02,1.460395944803653094e+02,1.477794192226333098e-03,2.944068888525051761e+02,4.920595135690905607e-04
5.260000000000000000e+02,1.455494039638847141e+02,3.165513938461865517e-05,4.876473254898518235e+02,3.337858774190300814e-04
6.000000000000000000e+00,1.455484834613921237e+02,1.246179980731972449e-03,3.323428147281974248e+02,6.221476609051266107e-04
2.100000000000000000e+01,1.448271986384116019e+02,2.297025574352799110e-03,4.318071398147735636e+02,8.488285677060173262e-04
1.540000000000000000e+02,1.435501494818871890e+02,1.159941390076528857e-03,3.055096388062747792e+02,3.967208832840947203e-04
3.280000000000000000e+02,1.429734245189037836e+02,9.947227061089939423e-04,3.333769903147157834e+02,5.576373693376135941e-04
3.460000000000000000e+02,1.416848471369468427e+02,2.095278736877551062e-03,3.090942272445528261e+02,4.320016594134705500e-04
6.850000000000000000e+02,1.411351867738256942e+02,2.388492981474117996e-03,3.189611003042554103e+02,6.346686016268756128e-04
6.940000000000000000e+02,1.408646445098566744e+02,2.077156710627105479e-03,3.298883237970499636e+02,5.211586600216841980e-04
2.020000000000000000e+02,1.404471739080871941e+02,1.239774711356841832e-03,3.273267908458066699e+02,4.272985943953319459e-04
3.520000000000000000e+02,1.388060615939549223e+02,9.109698764391622105e-04,3.334974786101871018e+02,5.984472163867355678e-04
7.710000000000000000e+02,1.378170876369449616e+02,1.421679858167092421e-03,3.481552879399154108e+02,5.494938294588619116e-04
1.090000000000000000e+02,1.373803781134637347e+02,1.310618621188495547e-03,2.901300302306985941e+02,4.282346725412590591e-04
7.830000000000000000e+02,1.353403475217746745e+02,1.690759424689982846e-03,3.418222397430396313e+02,6.584612951036883897e-04
3.380000000000000000e+02,1.352088321692145598e+02,2.025315703018796144e-03,2.773994222647057768e+02,4.583110829904936921e-04
3.810000000000000000e+02,1.331378025923332586e+02,1.306211162288543328e-03,3.427095040485831987e+02,4.727574295035090663e-04
5.050000000000000000e+02,1.330227917869721637e+02,2.105814213662503178e-03,2.850096532458625802e+02,5.331801904750808722e-04
4.500000000000000000e+01,1.329925178903828851e+02,1.000126395631433483e-03,3.163866143619842433e+02,4.252004438273128818e-04
7.080000000000000000e+02,1.321466788614200141e+02,9.960268875917116169e-04,3.013765313294636599e+02,4.007908201690809150e-04
1.300000000000000000e+02,1.311551646567671412e+02,2.985453660895260935e-04,3.344463838305915147e+02,4.082299562946498290e-04
6.160000000000000000e+02,1.281802759069493050e+02,7.685636457703409492e-04,2.695843322833206912e+02,4.166064939308225415e-04
3.200000000000000000e+02,1.275557036720649933e+02,4.812553092542332643e-04,3.027797389901158454e+02,3.714794676102003697e-04
1.880000000000000000e+02,1.272427486785198028e+02,2.334258287183581249e-03,3.704412809445641415e+02,6.642894131346369427e-04
1.990000000000000000e+02,1.269756151423068786e+02,1.251030484805398064e-03,2.665001222515313088e+02,3.370467085451616957e-04
5.710000000000000000e+02,1.235423151830950701e+02,1.146151405395556301e-03,2.935251729279009396e+02,4.093437935587356511e-04
7.480000000000000000e+02,1.201359946106274776e+02,1.735917155539793300e-03,3.319444297866569968e+02,6.259886535003086200e-04
4.900000000000000000e+01,1.191515923648240687e+02,1.166474131466363430e-03,2.350513219128110620e+02,3.172039115010970452e-04
2.840000000000000000e+02,1.188014159248100583e+02,1.326980721374790805e-03,2.849106029017230526e+02,3.498528557758806578e-04
3.020000000000000000e+02,1.171378161078442162e+02,4.393193006854139316e-04,2.276916897977418159e+02,2.847683576971330572e-04
4.180000000000000000e+02,1.168964322123050295e+02,8.491987985508423235e-04,2.736261052670470235e+02,4.414044715864864996e-04
1.660000000000000000e+02,1.167347057732396536e+02,1.056012445673160322e-03,3.670462855503354831e+02,5.173692735895707570e-04
7.380000000000000000e+02,1.165055888359960363e+02,3.740656764613270349e-04,2.690729020837999883e+02,3.536102336376705955e-04
3.670000000000000000e+02,1.146350680266353947e+02,7.652554648653615409e-04,3.104260937473205217e+02,3.762098379296576964e-04
4.620000000000000000e+02,1.142417178418576498e+02,2.697107593642822203e-03,2.732419565039962208e+02,5.106344503654589462e-04
7.960000000000000000e+02,1.139154942173923928e+02,1.230372440272043408e-03,2.868311246393965348e+02,4.856790834173404007e-04
5.310000000000000000e+02,1.128290471046285859e+02,5.724597973356540873e-04,2.644330930225672205e+02,4.861282115497271225e-04
3.220000000000000000e+02,1.117896155386805503e+02,1.544695213475103706e-03,2.700670106928876066e+02,3.529518372186047758e-04
1.270000000000000000e+02,1.104681058327630865e+02,7.920640757662218397e-04,2.612857186188483638e+02,5.489675072180752978e-04
2.500000000000000000e+02,1.099507813222464705e+02,1.168478445953389372e-03,2.691458091813449300e+02,4.705199831217317819e-04
1.680000000000000000e+02,1.088924594022468426e+02,1.839558022112210969e-03,2.308330112345362863e+02,3.086185524913097875e-04
5.750000000000000000e+02,1.085010972683107298e+02,1.609251739711921401e-03,2.443243073240068384e+02,3.295440679273415143e-04
5.740000000000000000e+02,1.084949331880415571e+02,8.262969575469772746e-04,3.006325110924377668e+02,6.490912296140805395e-04
5.060000000000000000e+02,1.081654313576022162e+02,1.783698709141415739e-03,2.283137511577574230e+02,3.648962028790472454e-04
5.120000000000000000e+02,1.066648986628557054e+02,2.107552769098608155e-04,2.437655331477890286e+02,2.542922431106944825e-04
7.290000000000000000e+02,1.039663475067666809e+02,2.103279015181433800e-03,2.512432875591918560e+02,5.160040129385606248e-04
2.500000000000000000e+01,1.025940210768910390e+02,6.746540383447973983e-04,2.180188445087997877e+02,2.969398647114186501e-04
2.800000000000000000e+01,1.024251197140349774e+02,7.391959258302401633e-04,2.277357054280065256e+02,3.275319734026531783e-04
1.000000000000000000e+01,1.022348823745397226e+02,5.913017716796492400e-04,2.144238460790943179e+02,3.307451588354886176e-04
2.940000000000000000e+02,1.014164902635502017e+02,1.634656885818314923e-03,2.273993280298346349e+02,2.945023934769519557e-04
3.880000000000000000e+02,9.838349164284680626e+01,1.185710692307002500e-03,2.270889022874799821e+02,2.991703829474008105e-04
1.240000000000000000e+02,9.815114080603223101e+01,3.984628877563994062e-04,2.080150978744075587e+02,2.298851680388740062e-04
6.150000000000000000e+02,9.788299559177451670e+01,7.635986939256633396e-04,2.070918841038609628e+02,3.695833199913188039e-04
6.370000000000000000e+02,9.765392001168287095e+01,7.266796804414728467e-04,2.138869889936800632e+02,3.407005739436846665e-04
4.480000000000000000e+02,9.696450746310961222e+01,4.757585994232655345e-04,2.223200594394091922e+02,3.809853730104708442e-04
7.210000000000000000e+02,9.593108654202868024e+01,8.269816389682143470e-04,1.900381238635604859e+02,2.732642646089130734e-04
5.380000000000000000e+02,9.395196441656085540e+01,5.226888873941540293e-04,2.116549553508149586e+02,2.911431730799148758e-04
7.550000000000000000e+02,9.329785855214220192e+01,5.004833275942612058e-04,2.308104983877609584e+02,3.279313974965626850e-04
1.690000000000000000e+02,9.033061871476431293e+01,2.128774263970122777e-04,1.999541539772774570e+02,2.767668077662360196e-04
3.540000000000000000e+02,8.991921471272172539e+01,1.119134088787058796e-03,1.935055335721951337e+02,2.743028014062738932e-04
7.640000000000000000e+02,8.857028086295402147e+01,6.278576994538858725e-04,2.255628758831674077e+02,3.170935620975523766e-04
7.430000000000000000e+02,8.769321590996520399e+01,5.282734977720203277e-04,2.168841168719030179e+02,3.174247870436624629e-04
6.330000000000000000e+02,8.614235416861359340e+01,1.903847189092496180e-03,2.308741297708958200e+02,4.974667731377173776e-04
3.910000000000000000e+02,8.573534542690231319e+01,7.431401458806874026e-04,1.912235176754105908e+02,4.091252518474088507e-04
9.100000000000000000e+01,8.545053511648983147e+01,3.906223254975192119e-04,1.946554237261261733e+02,2.079475972981359661e-04
1.530000000000000000e+02,8.451210822236740228e+01,1.225875292809622220e-03,1.943452557895171537e+02,2.994320261069185227e-04
1.840000000000000000e+02,8.322146089150538728e+01,1.500695275627776486e-03,1.789275772485221410e+02,2.385218418272210255e-04
7.580000000000000000e+02,8.305053077717053611e+01,9.540594631508449814e-04,2.108927212877542274e+02,4.955250353735209763e-04
2.380000000000000000e+02,8.260566857483016179e+01,4.780433346030488716e-04,1.712039287467788995e+02,2.216794604322253493e-04
3.130000000000000000e+02,8.246742673076617791e+01,1.041801281390791279e-03,1.850022344556460894e+02,3.473576517336028646e-04
5.150000000000000000e+02,8.167552180483222912e+01,6.642585583078857445e-04,1.955541812271231947e+02,3.530649202604252022e-04
6.810000000000000000e+02,8.073919725701018990e+01,1.421531517464443657e-03,1.620456371910744053e+02,2.984022897801908575e-04
3.110000000000000000e+02,8.037505023465138265e+01,4.616869775057643181e-04,1.845967302275803945e+02,2.167867545216147374e-04
7.970000000000000000e+02,8.035943414019162390e+01,1.272802324438323173e-03,1.993697868309355954e+02,2.981738132176816637e-04
4.800000000000000000e+01,7.960189317554626598e+01,4.551632925193828676e-04,1.783905831307371272e+02,2.625248709251769026e-04
1.600000000000000000e+01,7.948412979319395788e+01,9.898872584920789287e-04,1.730274823803840718e+02,2.738728029345191485e-04
2.260000000000000000e+02,7.923735571727189608e+01,4.509992892384051956e-04,1.677984476753959484e+02,2.443097141959897373e-04
7.780000000000000000e+02,7.883569943100026478e+01,1.264996692328191957e-03,1.770207810109377249e+02,2.891079183720586120e-04
5.400000000000000000e+02,7.875510778900047626e+01,8.432887705265635411e-04,1.850004167602986058e+02,2.498541712435942662e-04
1.600000000000000000e+02,7.539065223075876077e+01,1.343991179515612987e-03,1.837021392500523120e+02,2.955232638461443239e-04
8.100000000000000000e+01,7.526948313370982646e+01,1.253434698904542415e-03,1.736172665335188299e+02,3.030406613077263247e-04
4.000000000000000000e+01,7.513685837943594947e+01,7.361162100642851779e-04,1.641977259388820016e+02,3.012563097233649195e-04
4.330000000000000000e+02,7.499238738449700747e+01,1.144669567181796254e-04,1.582657587347658250e+02,1.700808240027725340e-04
6.180000000000000000e+02,7.407848451522669109e+01,1.770116557097093789e-04,2.939279110735946574e+02,1.998378045441133422e-04
1.180000000000000000e+02,7.378001093349317330e+01,8.036351336963078488e-04,1.779425259041388472e+02,2.570756742494659935e-04
7.510000000000000000e+02,7.320488775360597344e+01,5.657227501729471470e-04,1.570049203033834999e+02,1.951037340911698965e-04
4.760000000000000000e+02,7.143095629296702498e+01,2.878300100290456689e-04,1.926892878057388145e+02,2.726764807841192389e-04
5.430000000000000000e+02,7.131810382279824978e+01,1.120897745067262049e-03,1.661925001565492153e+02,3.231795971232190247e-04
3.830000000000000000e+02,7.089410878724365261e+01,7.685709756533683126e-05,4.310711123091476225e+02,4.852932399200382400e-04
5.520000000000000000e+02,6.972533161363773502e+01,1.217212784346049115e-03,1.656914934412594960e+02,2.240189682263830299e-04
3.930000000000000000e+02,6.904055388040808339e+01,5.913772584560490157e-04,1.411589405047593573e+02,2.045420231326173436e-04
4.950000000000000000e+02,6.877702718947567462e+01,6.544304701503994137e-04,1.545579439950661254e+02,2.895278937503513775e-04
2.630000000000000000e+02,6.831650167365437198e+01,4.316646618183943101e-04,1.591234905294345765e+02,2.081739465777590473e-04
2.000000000000000000e+02,6.826344707850634563e+01,6.658112452873075947e-04,1.547131403138407109e+02,2.744471751186200546e-04
5.690000000000000000e+02,6.779667068917645167e+01,5.531640392529226131e-04,1.433778830921717429e+02,2.539388433987632568e-04
2.410000000000000000e+02,6.651711985525452064e+01,9.239574538896857007e-04,1.527867356794721161e+02,2.517917165521569266e-04
1.000000000000000000e+00,6.641369842670167145e+01,5.195688740994037352e-04,1.388665480153492524e+02,1.849319454263879698e-04
1.900000000000000000e+01,6.567705056153847920e+01,7.212905881008489176e-04,1.767014887796464109e+02,2.513073586236690485e-04
6.000000000000000000e+02,6.518476709448152917e+01,3.744722793571369124e-04,1.279943858548032978e+02,1.803629241821346483e-04
7.310000000000000000e+02,6.302959072280126662e+01,2.830689785764408349e-04,1.363498052222156502e+02,2.080646266760467680e-04
3.340000000000000000e+02,6.259498543191040909e+01,3.853523946362502660e-04,1.461352897579785406e+02,1.989732096744077942e-04
1.040000000000000000e+02,6.205987515380614639e+01,2.978462371108619717e-04,1.471596233510488503e+02,2.529024157227947834e-04
4.400000000000000000e+01,6.177254683411195657e+01,2.699607561839926172e-04,1.483060411038360940e+02,2.336852892226630137e-04
4.090000000000000000e+02,6.103349632669377201e+01,3.390656003788800141e-04,1.332765014896640423e+02,2.158128159084067956e-04
3.050000000000000000e+02,6.048555059746149709e+01,3.422702247234013333e-04,1.640751393107282183e+02,2.654591379884061906e-04
8.000000000000000000e+02,6.047270838881010491e+01,4.366185184108697871e-04,1.304862990370627926e+02,2.626405227915743737e-04
7.910000000000000000e+02,5.867060266531520796e+01,2.388309430970178137e-04,1.359697138911675722e+02,1.769146171354425148e-04
3.560000000000000000e+02,5.845031773642638484e+01,2.243256750069004904e-04,1.110545879166362795e+02,1.732741336205694514e-04
5.280000000000000000e+02,5.725708438295192337e+01,4.697195477677112963e-04,1.404571605569821884e+02,2.299010861837262729e-04
6.860000000000000000e+02,5.613781041377069414e+01,2.470575345883839935e-04,1.323373972932990910e+02,1.645354517995808704e-04
3.820000000000000000e+02,5.542510017649998133e+01,2.717380504856235410e-04,1.223054320243531237e+02,1.926678601817904783e-04
6.760000000000000000e+02,5.519315135228241331e+01,5.156886940066315005e-04,1.239466782429826424e+02,2.728862090916265161e-04
3.860000000000000000e+02,5.512483887630662593e+01,3.445249387062257300e-04,1.482940801955627705e+02,2.148412116248909359e-04
5.940000000000000000e+02,5.426025826627663662e+01,1.329111940667821097e-04,1.026586458986451618e+02,1.397554922434398358e-04
5.900000000000000000e+02,5.419338116600855670e+01,3.169554877554640600e-04,1.180561640897681173e+02,1.590206174028951989e-04
1.520000000000000000e+02,5.352423801146460391e+01,7.104091609118536738e-04,1.240213397821069066e+02,2.121871507818580752e-04
3.120000000000000000e+02,5.349441741763506286e+01,3.036314394035143408e-04,1.070425516419416567e+02,1.382566129433393802e-04
4.720000000000000000e+02,5.315565484806994334e+01,1.481418601072563763e-04,1.137912762365662331e+02,1.151429815132211251e-04
4.910000000000000000e+02,5.304648494493569189e+01,3.663689878365787578e-04,1.410321621707212785e+02,2.094547226504056656e-04
5.250000000000000000e+02,5.205802348748661501e+01,2.235025375957384766e-04,1.089367542847610082e+02,1.390320813394355190e-04
7.140000000000000000e+02,5.156401432290272879e+01,1.887631876076899576e-04,1.202624820380054871e+02,2.026854169089905948e-04
4.360000000000000000e+02,5.140006821960098193e+01,5.460843291728472489e-04,1.081166539077047020e+02,1.659946139776495209e-04
6.540000000000000000e+02,5.130771520331029478e+01,3.679541499221834267e-04,1.197844438472695145e+02,1.578076054308294278e-04
6.410000000000000000e+02,5.074724808719261659e+01,2.457726104210816330e-04,1.166200100874166594e+02,1.449342054935039050e-04
2.770000000000000000e+02,5.054007926455020083e+01,2.104348596016252708e-04,1.128485995320563688e+02,1.492083960947711708e-04
7.560000000000000000e+02,5.032604857806025223e+01,2.908132039168577466e-04,1.036305357992313105e+02,1.953842339940079517e-04
1.480000000000000000e+02,4.999556603311932435e+01,1.440192770334209748e-04,9.792578119908228018e+01,1.176703409755623230e-04
5.660000000000000000e+02,4.956477368416203433e+01,1.972581291208660320e-04,1.069645570392001872e+02,1.354987837167368891e-04
4.920000000000000000e+02,4.855719359628192677e+01,2.545425900218884602e-04,1.125831729977757050e+02,1.587187510042963154e-04
1.170000000000000000e+02,4.826959767975869653e+01,1.764347293602513652e-04,1.295191442940010234e+02,1.983714823940461243e-04
5.070000000000000000e+02,4.729373160984969360e+01,5.330457026733956011e-04,1.154681615117537490e+02,2.376441159033429299e-04
4.790000000000000000e+02,4.647367876878050197e+01,2.929724378832770687e-04,1.162473746784720419e+02,1.755690386706174478e-04
1.440000000000000000e+02,4.555887411341810633e+01,3.410959017317286468e-04,1.100757764537625434e+02,2.133913989485387321e-04
3.510000000000000000e+02,4.524585120930430548e+01,1.487070389690546654e-04,1.055485058052220069e+02,1.630231518217831329e-04
6.650000000000000000e+02,4.492821217817702717e+01,9.378868520855621277e-05,9.985230976366685240e+01,1.120865360620541183e-04
9.500000000000000000e+01,4.409936646208122113e+01,1.323345007076630320e-04,9.610864209330520680e+01,1.286683982247040486e-04
1.820000000000000000e+02,4.360581551365596908e+01,4.913692900257473056e-04,1.030074166657655041e+02,1.592614980797823663e-04
4.260000000000000000e+02,4.312114289817427704e+01,5.962569473308578340e-05,9.741273434485566440e+01,1.027598245658516840e-04
4.750000000000000000e+02,4.290286011624993989e+01,1.923640074180170639e-04,9.461458177463165953e+01,1.631771749770641420e-04
3.500000000000000000e+01,4.251522850591563696e+01,8.148154175022400119e-05,8.771917969489214784e+01,1.251157518443759523e-04
5.760000000000000000e+02,4.215450353651755222e+01,1.925940242654140117e-04,1.029391066151305125e+02,1.157055059153639005e-04
7.200000000000000000e+02,4.159013981814607064e+01,1.992816192564777664e-04,4.697689610725909120e+02,7.967646720236675525e-04
6.610000000000000000e+02,4.086647715607114151e+01,3.777733868410136251e-04,1.008227425247052906e+02,1.761477758187961478e-04
7.150000000000000000e+02,4.023547993467830253e+01,1.446184662905184890e-04,9.420050041832870136e+01,1.353372744020532668e-04
8.400000000000000000e+01,3.992493196923224730e+01,2.068011243971269860e-04,7.268706907629089642e+01,1.221777519354795181e-04
7.130000000000000000e+02,3.937550842269273232e+01,8.341647706120536114e-05,2.333758049036945295e+02,3.678638677459458565e-04
9.400000000000000000e+01,3.929148567960016436e+01,1.258114015501055906e-04,8.982681555203819812e+01,9.013346560194893553e-05
2.330000000000000000e+02,3.888780317194752456e+01,4.843677981064865856e-04,8.858509435375408714e+01,1.303303683750168043e-04
5.550000000000000000e+02,3.819316182225245626e+01,3.571704321869826238e-04,9.070941288756840493e+01,1.348605175434051517e-04
8.900000000000000000e+01,3.762168934531328546e+01,1.373257781128258445e-04,6.252120674166479830e+01,8.590657044063889876e-05
6.780000000000000000e+02,3.727038957116852202e+01,2.085547015890018834e-04,1.032711709732264325e+02,1.669072108284978817e-04
5.580000000000000000e+02,3.622331767554990734e+01,3.388689606911175409e-05,8.189872085624298848e+01,6.336886976294183805e-05
2.620000000000000000e+02,3.609403700431863626e+01,4.696719779440108292e-05,7.829634078295660515e+01,8.066931694829543190e-05
1.710000000000000000e+02,3.568000835147337568e+01,2.834976799747704053e-04,9.113363256267290069e+01,1.389187175011784531e-04
2.660000000000000000e+02,3.420730768991642634e+01,6.755374784274398433e-04,8.196286374826475196e+01,1.662770782771756965e-04
5.010000000000000000e+02,3.400062530555167228e+01,1.383849541411001356e-04,8.092728243811042432e+01,1.254015130926225082e-04
6.550000000000000000e+02,3.399795712541218506e+01,2.295874746166740626e-05,1.009666814589623414e+02,1.106873484276912868e-04
7.270000000000000000e+02,3.377670150722858011e+01,1.967085149184673223e-04,7.280772343889721299e+01,8.539031974343823600e-05
6.710000000000000000e+02,3.315297576443320082e+01,1.152835990732292026e-04,7.537651725798333757e+01,8.418901626176933232e-05
4.550000000000000000e+02,3.210084137479258004e+01,6.310091534676767744e-05,7.492160222126975100e+01,1.048382081969647831e-04
6.630000000000000000e+02,3.207811692829430683e+01,1.454105327407219307e-04,7.013942036474581698e+01,7.326724911751542274e-05
2.810000000000000000e+02,3.190151743071553625e+01,2.360387611725224381e-04,7.320049505413237512e+01,1.353059753953225687e-04
6.820000000000000000e+02,3.143036368483200604e+01,2.420003404827488478e-04,7.661867745749255221e+01,1.076471332279649637e-04
5.000000000000000000e+01,3.101205720446077763e+01,3.410261305914551546e-05,6.644941697632734190e+01,8.877348457664730732e-05
4.460000000000000000e+02,3.058865434602393663e+01,2.120926033192860652e-04,7.902005151058574484e+01,1.209147230085008760e-04
6.400000000000000000e+01,3.018671703778525028e+01,2.001883839770899395e-04,6.770996736860618626e+01,1.198324919272373082e-04
1.790000000000000000e+02,3.000104145329967409e+01,8.842544304489484658e-05,6.636663739325156541e+01,1.021684654766678727e-04
5.180000000000000000e+02,2.962318476820891178e+01,7.167383219125684005e-05,6.741471619688486783e+01,7.562293284283566673e-05
3.630000000000000000e+02,2.950475895784603964e+01,1.666898983892117130e-04,6.442889677262080284e+01,7.297811118255961035e-05
5.000000000000000000e+02,2.899633578793843469e+01,1.359345437476576208e-04,6.888887328046455139e+01,8.659335623885848303e-05
9.700000000000000000e+01,2.884192887166563679e+01,2.808350455565436759e-04,7.272634805224286936e+01,1.216169641714870035e-04
4.990000000000000000e+02,2.872213561813924088e+01,1.258651558473931388e-04,7.969311832456580191e+01,9.837675003770492588e-05
5.100000000000000000e+02,2.828574091233439702e+01,1.256468177068516213e-04,5.647325380483756874e+01,1.008971286675193404e-04
6.890000000000000000e+02,2.732412624795308176e+01,3.424555502849075257e-05,5.997203166010569930e+01,7.593736313183943262e-05
3.490000000000000000e+02,2.595934681575422331e+01,1.594037207941428425e-04,5.995111353182067404e+01,8.818033174156901543e-05
5.880000000000000000e+02,2.558058577146383072e+01,2.583659823680145551e-04,6.793328716907389264e+01,1.427610626778415520e-04
2.100000000000000000e+02,2.485418348709631786e+01,2.942855324341894893e-04,5.988616711111316704e+01,8.135166699166261281e-05
2.650000000000000000e+02,2.478899980247226509e+01,1.150659132183120843e-04,5.476176363845293338e+01,7.353222953988473962e-05
1.800000000000000000e+01,2.465340180473194920e+01,2.580576059199946520e-05,6.170233892017969879e+01,7.783669188952395022e-05
1.830000000000000000e+02,2.336343663028644002e+01,6.088449389216687806e-05,4.957008808842180514e+01,6.851707846890506086e-05
5.530000000000000000e+02,2.272134873498827190e+01,3.138497889530572594e-05,4.907910942119180220e+01,5.530123309533967240e-05
3.600000000000000000e+01,2.252147892282051345e+01,5.616953565146228314e-05,4.658846351211798975e+01,6.242420997738804054e-05
4.250000000000000000e+02,2.216216446055070577e+01,1.210531968625202238e-05,5.565641237038563105e+01,4.238349206352953421e-05
4.870000000000000000e+02,2.172883730878326602e+01,2.238145289447473997e-04,4.832997590850735747e+01,1.091555915979098147e-04
4.800000000000000000e+02,2.135150796212040802e+01,6.236686686149501278e-05,4.456726453067011562e+01,6.896329668032983619e-05
2.800000000000000000e+02,2.109089072918293795e+01,8.110883351131926045e-05,4.512044526740301364e+01,6.544454923706083957e-05
1.770000000000000000e+02,2.072613541617273825e+01,4.328418270404435199e-05,4.538854788783824290e+01,4.396579902335411699e-05
6.680000000000000000e+02,2.064064760786130392e+01,5.852441470428465634e-05,4.968864816657236361e+01,5.901005746886739867e-05
4.080000000000000000e+02,2.044936506342359905e+01,1.637247207435713991e-04,5.131867666464663102e+01,5.864379747289843445e-05
8.600000000000000000e+01,2.029696393106505781e+01,7.921837257711220081e-05,5.137410772293362271e+01,7.672640828390804894e-05
3.150000000000000000e+02,1.895438524478480247e+01,8.833921742413624017e-05,3.976670149228228013e+01,6.044801980423712928e-05
1.290000000000000000e+02,1.891370274118876083e+01,2.904667983472044259e-05,3.545524872680110917e+01,6.427449798362361798e-05
6.390000000000000000e+02,1.888315155632275477e+01,5.556194352032487041e-05,4.703123359149154226e+01,5.191666922269620943e-05
3.300000000000000000e+01,1.888042339300037398e+01,1.607855139853128678e-05,4.221262495355036748e+01,3.865652212978120756e-05
2.560000000000000000e+02,1.770182618113711470e+01,8.536450560681641529e-05,3.822867925948108336e+01,5.552419297357849478e-05
3.300000000000000000e+02,1.583206673056837133e+01,1.428482413294091999e-04,3.718524762931330230e+01,5.532781123483848109e-05
4.600000000000000000e+01,1.560507191443905306e+01,6.362570371706509061e-05,3.299567758152708308e+01,5.843754235060119313e-05
2.000000000000000000e+00,1.427722713002400390e+01,5.993249374053297071e-05,3.183246083978517049e+01,2.696016312129063074e-05
3.710000000000000000e+02,1.423996652142296604e+01,1.910308962767506648e-05,3.977720831187837547e+01,4.497723086990871422e-05
3.200000000000000000e+01,1.417497779043911343e+01,2.506901880646133211e-05,3.953097612096833302e+01,3.694048491936948575e-05
4.900000000000000000e+02,1.347434321594936968e+01,1.437608693523644419e-05,2.953256329712124284e+01,3.836663249965578459e-05
7.520000000000000000e+02,1.294910214198247544e+01,4.757919499545913526e-03,1.056056052496311167e+03,6.781225463567057236e-03
4.640000000000000000e+02,1.288682042570211905e+01,4.636101122426177813e-03,1.035076900076909396e+03,5.306298052713470832e-03
5.480000000000000000e+02,1.286127987546297824e+01,2.122853044258608997e-03,1.189606478416534401e+03,3.622003361765820800e-03
4.230000000000000000e+02,1.251643147816640500e+01,2.151155487844746465e-05,2.605792401051088447e+01,3.815050343674316577e-05
3.330000000000000000e+02,1.245335964251728811e+01,2.958065391128120367e-05,2.931817984167141944e+01,3.583021664510539349e-05
5.600000000000000000e+02,1.212968125831980259e+01,1.612239024479605827e-05,2.493177462378485743e+01,2.891326614791014699e-05
7.600000000000000000e+02,1.172424435951067423e+01,1.049143476700806169e-05,2.643589012153892881e+01,2.845571090361621858e-05
2.970000000000000000e+02,1.091977273012442673e+01,1.304252685614299160e-04,2.495165494913535298e+01,4.033944081820942383e-05
4.780000000000000000e+02,1.091783244245123541e+01,5.780268437650972896e-06,2.250357100366643692e+01,2.881552400577273737e-05
4.960000000000000000e+02,1.028355511694567248e+01,2.560048351429645736e-05,2.283960839245502328e+01,3.297226953290849984e-05
6.420000000000000000e+02,9.874521059775592136e+00,2.104954363634304254e-05,2.167507653785062161e+01,2.249625672570204008e-05
2.920000000000000000e+02,9.740588839713236524e+00,4.823466582152663093e-03,1.155201078623479134e+03,5.346909894506363461e-03
3.760000000000000000e+02,9.645161654945781038e+00,7.951056823187594675e-06,2.037588537796588639e+01,2.233281488225390433e-05
3.320000000000000000e+02,9.205976449206236367e+00,6.711031816083048190e-06,1.854808109021249152e+01,2.219497814768509351e-05
4.580000000000000000e+02,9.091070129011759704e+00,6.729044961394853102e-06,1.998658468428033430e+01,2.017842480366550286e-05
3.700000000000000000e+01,8.811197294605760177e+00,8.204499523680489366e-06,1.867899403057759500e+01,2.415878945636250354e-05
3.770000000000000000e+02,8.732123847377534887e+00,2.404467101799627731e-03,8.603776746802448088e+02,3.213965776841297937e-03
4.880000000000000000e+02,8.623857399618554354e+00,5.008342901788423833e-06,1.748754800632851314e+01,1.860424718368421316e-05
9.900000000000000000e+01,8.542801005471813980e+00,7.418673392369116471e-06,1.563649233518212966e+01,2.087064612780620157e-05
6.440000000000000000e+02,8.417018646064358123e+00,5.150129656912604352e-06,1.676355572177815745e+01,2.624921831253120201e-05
7.500000000000000000e+02,8.362137991895124856e+00,4.089481672019316233e-05,2.159166142092749041e+01,3.312172623143116941e-05
1.850000000000000000e+02,8.292229584184502400e+00,1.769701913374681622e-05,2.199014230305650131e+01,2.635878727359210297e-05
3.740000000000000000e+02,8.043850172565445433e+00,5.974163061778434012e-05,1.717959115271553117e+01,2.644820118334487375e-05
4.630000000000000000e+02,7.857856966177776847e+00,1.265083910279856046e-05,1.910413726207391605e+01,2.473188300856416343e-05
5.810000000000000000e+02,7.431363008286460570e+00,3.594412440579683164e-06,1.634706917814321514e+01,1.810111652471983360e-05
5.730000000000000000e+02,7.414983904608934751e+00,7.189136722477683734e-06,1.384820561352533375e+01,2.050578871570597409e-05
4.290000000000000000e+02,7.145314274394396925e+00,1.332547490377926965e-04,1.349750456676772501e+02,1.935885135647859030e-04
5.680000000000000000e+02,7.138342644262175796e+00,6.998741227953499224e-06,1.561537842036317869e+01,2.259202740970662164e-05
6.300000000000000000e+02,7.122711290368197723e+00,1.034336570999564537e-03,4.672682283235050136e+02,1.316790818776116976e-03
5.460000000000000000e+02,7.085773690868979457e+00,4.009941483053418297e-06,1.685756710374903733e+01,1.397674205664965779e-05
4.520000000000000000e+02,6.971593530447251830e+00,2.397181862936769478e-05,1.478991580411816642e+01,2.113151646745347492e-05
1.340000000000000000e+02,6.936644551857900964e+00,7.615130675932738008e-06,1.427538125864434448e+01,2.002194855628151908e-05
7.350000000000000000e+02,6.685292373109389175e+00,3.354066746311441550e-05,1.802630900060818675e+01,3.039615973864278269e-05
1.940000000000000000e+02,6.612782082386365445e+00,3.549124333647444563e-06,1.455952527518808814e+01,2.087199173942341315e-05
3.610000000000000000e+02,6.062437449811967305e+00,1.547407026573614599e-05,1.696667260183872017e+01,2.415491632952056867e-05
4.370000000000000000e+02,5.525419403707944710e+00,2.187658765183036259e-06,1.355136238101892410e+01,1.107953889961086422e-05
6.090000000000000000e+02,5.159430396504855132e+00,2.644323638567725680e-03,7.008695382978945645e+02,3.080724155479401451e-03
6.510000000000000000e+02,4.963068075507065302e+00,3.040323664269580312e-06,1.108237481078558773e+01,1.532282230779821906e-05
4.830000000000000000e+02,4.901796972241693418e+00,1.720166768143801425e-06,1.059414961962240298e+01,1.359505318911437062e-05
2.580000000000000000e+02,4.857740398929830228e+00,1.428142035726052408e-03,5.429961370135066545e+02,2.687489689106286293e-03
6.800000000000000000e+01,4.819084661464120956e+00,2.767145466727047041e-06,1.195513931503470850e+01,8.726090352995377136e-06
1.630000000000000000e+02,4.793743068413819586e+00,7.966681737946744422e-07,1.119180381541394453e+01,8.940503103542727175e-06
5.410000000000000000e+02,4.778289042241248730e+00,2.527688874324002003e-06,9.564128631667680125e+00,1.315692823422249344e-05
6.770000000000000000e+02,4.777981644685761253e+00,1.775448379856208249e-06,9.098051501499034188e+00,1.050740184152192877e-05
5.970000000000000000e+02,4.752987242621916408e+00,4.612205882594782279e-03,1.263555912689251272e+03,5.857913653079365075e-03
5.340000000000000000e+02,4.656043859553951947e+00,3.027263317509215488e-06,1.090643257467466043e+01,1.131254161782011529e-05
4.170000000000000000e+02,4.623957031002983165e+00,3.762733151444035496e-06,9.376376969052316213e+00,1.104696241582514392e-05
6.310000000000000000e+02,4.356033493486901165e+00,1.016083508463982665e-05,9.220668561038015909e+00,1.328075888832423989e-05
6.020000000000000000e+02,4.077009051766649073e+00,2.548542140155169204e-05,9.477502137486665035e+00,1.594303281442865065e-05
2.360000000000000000e+02,3.861030365745775850e+00,2.898238551976149279e-03,9.736385803986963765e+02,3.760328751518353472e-03
4.710000000000000000e+02,2.984883696517555141e+00,2.120545913914281648e-03,7.245240361882019897e+02,2.044996985636979465e-03
1.970000000000000000e+02,2.963313738339151016e+00,7.622956552892921435e-07,6.274938349492177991e+00,4.341875660807740040e-06
6.670000000000000000e+02,2.898597867024927499e+00,6.023733597757982924e-06,6.059551945393283567e+00,8.717794840985945199e-06
6.220000000000000000e+02,2.742954426561511561e+00,9.020794222614634101e-07,6.162760581998186993e+00,5.281752032446770535e-06
2.690000000000000000e+02,2.611634770695603347e+00,8.940466302465548940e-06,5.564103774758239140e+00,1.030708113196413125e-05
3.410000000000000000e+02,2.478943557939188302e+00,3.008895160299466721e-06,5.506579008869967318e+00,5.772683122772882190e-06
3.000000000000000000e+00,2.258520852055134753e+00,1.652746226089196428e-06,5.004837413962972548e+00,4.803232348516369124e-06
5.700000000000000000e+01,2.247045398830767038e+00,1.336791465812497612e-04,1.332181785014166735e+02,1.577052232585275323e-04
6.520000000000000000e+02,2.048035463034584058e+00,1.552465397225744137e-06,3.941597814480891415e+00,4.738359058279078461e-06
2.070000000000000000e+02,1.826928058499121432e+00,4.660469222290874977e-07,4.370421031854930582e+00,2.240016530636122355e-06
5.300000000000000000e+01,1.633681541995578357e+00,6.430800944858704581e-06,4.048470662877282855e+00,4.520982913410325372e-06
2.440000000000000000e+02,1.505672850145882480e+00,7.632395973661325502e-07,2.733840365452074206e+00,3.144060768082925463e-06
6.920000000000000000e+02,1.334885887983561226e+00,3.609490592109412186e-06,3.305475740899346704e+00,4.486133216404039292e-06
2.450000000000000000e+02,1.325635161936309814e+00,5.337524154652190263e-07,2.358842079685483650e+00,5.742637621180963371e-06
7.470000000000000000e+02,1.107891103415519218e+00,1.132987655671354926e-06,2.163549919177787384e+00,2.619941546359880837e-06
3.230000000000000000e+02,1.047590706546757344e+00,3.134883612347085131e-03,4.450238816931345127e+02,3.438021189100032380e-03
5.200000000000000000e+01,1.032393343911998551e+00,2.382637316340066125e-04,1.989633830388068816e+02,2.574834383166794212e-04
3.550000000000000000e+02,9.623384161559905836e-01,6.134162940010679493e-07,2.483996142638185134e+00,3.255920222639046455e-06
7.570000000000000000e+02,9.199194458951279740e-01,2.158004608555276433e-07,1.968458024186901412e+00,1.116367859468731939e-06
4.070000000000000000e+02,8.001055966915257001e-01,8.543132768597528445e-07,1.783505762825210894e+00,1.990449886743273895e-06
1.420000000000000000e+02,7.723735311620558708e-01,7.167891992330037895e-07,1.382080745827815704e+00,2.019909326258656840e-06
3.690000000000000000e+02,6.350317771605283879e-01,9.254352179336171790e-08,1.221441613092879797e+00,5.673504830772744054e-07
7.260000000000000000e+02,4.720273114957866389e-01,6.657869187152528567e-07,9.859058191876869381e-01,1.334269239550679824e-06
4.600000000000000000e+02,4.128641369535553385e-01,1.729941660537178373e-07,8.505270157990083568e-01,8.232714925357334617e-07
4.100000000000000000e+02,3.917612637061042569e-01,5.959259151828215318e-04,2.316210145181851487e+02,5.959211240598088826e-04
6.720000000000000000e+02,3.389090996948749823e-01,5.945216938875425159e-07,6.441861011559980588e-01,1.113610252536859797e-06
3.780000000000000000e+02,2.967879294073809682e-01,1.396140203876814892e-07,5.792458452337475583e-01,3.342959490266325073e-07
4.030000000000000000e+02,2.768366391250461356e-01,4.727914461932413602e-08,5.232416510060019510e-01,2.993693684230943836e-07
3.470000000000000000e+02,2.421482733967371126e-01,8.238029085153244611e-08,4.596209670953341209e-01,3.810890040719215874e-07
7.300000000000000000e+01,1.918221828223433956e-01,1.225755180703442305e-07,3.251034889345466583e-01,3.532678623295596215e-07
7.170000000000000000e+02,1.230366162888495013e-01,1.164110030047907061e-07,2.479738485223705047e-01,1.383148342529543065e-05
6.690000000000000000e+02,8.854935806298822043e-02,7.556682756251983327e-09,1.423068199921697918e-01,4.573261650291992288e-08
2.190000000000000000e+02,8.081208890145336055e-02,1.559963415724955224e-08,2.190102984626780269e-01,1.009230111525218949e-05
2.790000000000000000e+02,5.274889277634780410e-02,7.462611405806007118e-08,1.541893887475575819e-01,6.661127507414567141e-06
1.400000000000000000e+01,4.765069808173233771e-04,1.235192323836129327e-03,4.094916743373083250e+02,1.235192323836129327e-03
