2.280000000000000000e+02,1.955560528334311812e+02,1.073767596611990708e-03,4.415259778758815514e+02,4.922020501707626873e-04
4.160000000000000000e+02,1.773057865124955867e+02,1.894004811997026931e-04,4.117859033075474144e+02,4.867310570825007397e-04
3.280000000000000000e+02,1.500531886762689737e+02,1.592533593196667819e-04,3.769488545689383727e+02,3.402052599376859045e-04
4.190000000000000000e+02,1.433627032215702286e+02,1.567671097844229925e-04,3.242316117484486426e+02,3.791100029236979529e-04
6.200000000000000000e+01,1.415654674934585273e+02,1.407686585886776167e-04,2.591261327078326531e+02,2.733155459115553217e-04
5.990000000000000000e+02,1.393381887554773755e+02,2.025323592616534176e-04,3.024714336193694066e+02,3.265099218195128129e-04
3.050000000000000000e+02,1.387755035381586026e+02,3.897597098902319860e-04,2.598880994342982262e+02,4.018589078712786976e-04
1.050000000000000000e+02,1.384948929536526521e+02,1.594502000761324734e-04,2.898644797833746907e+02,3.398191430504481081e-04
6.270000000000000000e+02,1.378583067460156713e+02,1.678181374437327171e-04,2.922423785089752641e+02,4.019912329032878902e-04
1.300000000000000000e+02,1.359322515033786658e+02,1.992384060845859260e-04,3.236121135568567979e+02,3.230770009775074734e-04
2.600000000000000000e+01,1.303703292425617235e+02,1.569023235006411206e-04,2.756841392251247953e+02,2.737879150963052634e-04
4.540000000000000000e+02,1.282083198595276201e+02,2.572369667662985143e-04,2.462079073343582820e+02,3.143779482350860617e-04
2.720000000000000000e+02,1.274299544503449368e+02,1.692398862260199345e-04,2.642917969331587642e+02,3.094922794386958400e-04
3.200000000000000000e+02,1.263447582604373451e+02,1.510045542083924685e-04,3.037169243329985875e+02,2.701539982009800171e-04
3.650000000000000000e+02,1.248341628635230052e+02,1.506458383430554901e-04,3.049296222692637457e+02,3.037445794521472864e-04
1.430000000000000000e+02,1.235783368417285288e+02,1.582800133147104274e-04,2.484262957041078721e+02,2.893695040784302424e-04
1.400000000000000000e+02,1.224451350423389187e+02,9.278482824958412243e-05,2.460724125319091229e+02,2.447229434831198701e-04
2.890000000000000000e+02,1.215632634933676428e+02,4.056771949146643365e-04,2.325568201993595210e+02,2.954670760733336629e-04
6.060000000000000000e+02,1.207576126907751330e+02,1.001158967161285560e-04,2.613296356920471339e+02,2.628469787639227308e-04
3.580000000000000000e+02,1.205915829122827176e+02,1.852930824101238667e-04,3.077886550181095231e+02,3.120329301851614912e-04
4.350000000000000000e+02,1.197186503471039458e+02,8.507475687634899507e-05,2.357237358769748425e+02,2.872888532387174367e-04
7.800000000000000000e+02,1.181188122590489940e+02,1.260866868616747404e-04,2.422791332376528430e+02,2.547322961935091995e-04
1.220000000000000000e+02,1.170819865098535644e+02,1.558213381167892033e-04,2.308409021958946425e+02,2.691676105919791652e-04
7.710000000000000000e+02,1.150616276114453740e+02,1.482593371943408676e-04,2.400362261529591024e+02,2.978564337159434654e-04
3.870000000000000000e+02,1.141732306974029001e+02,1.332779833887601576e-04,2.638071279540370710e+02,2.920625027597836712e-04
4.670000000000000000e+02,1.138748201070364701e+02,5.219617467700715197e-05,2.638584041195895225e+02,2.016271856516528094e-04
5.380000000000000000e+02,1.133454448162785724e+02,1.346219161100505285e-04,2.791852877840121323e+02,2.925862510568368936e-04
1.460000000000000000e+02,1.130335515156802160e+02,1.205810232309171117e-04,2.376921131563070162e+02,2.889865917498416468e-04
7.910000000000000000e+02,1.120220081708489204e+02,2.447237036016389959e-04,2.619097677379743914e+02,2.468934308670197794e-04
5.120000000000000000e+02,1.118343068208407516e+02,1.602736555715219289e-04,2.526428915605911811e+02,2.877013312530635148e-04
7.170000000000000000e+02,1.116323545569761819e+02,4.481258109765321541e-05,2.435301879624845753e+02,1.786330243349740676e-04
3.670000000000000000e+02,1.090574733516927068e+02,6.968869336105369921e-05,2.287919021590338957e+02,1.958980944465788811e-04
4.090000000000000000e+02,1.087125715785010556e+02,1.341355038143655953e-04,2.618745458680273828e+02,2.851922475863381801e-04
4.480000000000000000e+02,1.074998206722294896e+02,1.357897543178989254e-04,2.466897508451452268e+02,2.317768432980047485e-04
5.310000000000000000e+02,1.074130214253192719e+02,2.503165168275409353e-04,2.639839797797529286e+02,2.663036363855985841e-04
5.050000000000000000e+02,1.064364054714925487e+02,7.717324007509505891e-05,2.531450661004446943e+02,2.869134307687126609e-04
6.470000000000000000e+02,1.062122459971978259e+02,1.924459897492315113e-04,2.017264377151917643e+02,2.119527076293003501e-04
4.750000000000000000e+02,1.060711370336227901e+02,2.615068531348858699e-04,2.106191048693892753e+02,2.684039410995758303e-04
7.430000000000000000e+02,1.051488433867907872e+02,7.834808257652640289e-04,2.551841538821621498e+02,3.373881753007584904e-04
5.100000000000000000e+01,1.046174616211723816e+02,2.192836557700839268e-04,2.262661214608764340e+02,2.881389048435069366e-04
6.280000000000000000e+02,1.030143890364167021e+02,3.897103139970200429e-04,2.092382691629156000e+02,2.990224811742543828e-04
2.190000000000000000e+02,1.027034161428464500e+02,8.536418544947300274e-05,2.004792116095360086e+02,1.972880328675628912e-04
1.660000000000000000e+02,1.022677165645139326e+02,1.750104521124750550e-04,2.622510897358839657e+02,2.199608683125099488e-04
7.380000000000000000e+02,1.005731434925698267e+02,1.575460664569540610e-04,2.228039284993988076e+02,2.931749265649441776e-04
1.440000000000000000e+02,9.865993090036610624e+01,1.828475147548604606e-04,2.137723713149131299e+02,2.227307351426142674e-04
2.060000000000000000e+02,9.819521311631986293e+01,1.446498075763946495e-04,2.141185638466114654e+02,2.207054279012966662e-04
3.590000000000000000e+02,9.734438010154447340e+01,3.204797087742057007e-04,2.227256073459244305e+02,2.376814379646573553e-04
2.020000000000000000e+02,9.719557514436280599e+01,1.069196958954792324e-04,1.925914711148145386e+02,2.284073820727163169e-04
9.500000000000000000e+01,9.708363520813873038e+01,1.685185490555903150e-04,2.252729369860747397e+02,2.641456761215697281e-04
3.520000000000000000e+02,9.707224163424146468e+01,1.274386858428943128e-04,2.322478978560706651e+02,2.910279051656423813e-04
7.550000000000000000e+02,9.653606404524632012e+01,8.845617329208998233e-05,1.979610052995820979e+02,2.759236397200500661e-04
6.000000000000000000e+00,9.605881536814816002e+01,1.453877582788853158e-04,2.395441725307984200e+02,2.510344540572727063e-04
2.500000000000000000e+02,9.580602026138434724e+01,7.930585205265988430e-04,1.957447202946895572e+02,2.654518957718040532e-04
2.730000000000000000e+02,9.539080573679430586e+01,1.148676347122865098e-04,1.662569470985443445e+02,1.774481722052392710e-04
4.400000000000000000e+02,9.499794517864401655e+01,1.560554394646450089e-04,2.203064834299854056e+02,2.443608566286571671e-04
4.180000000000000000e+02,9.430420163344406603e+01,1.799636895306095828e-04,2.171854143817953116e+02,2.778082359963734245e-04
1.040000000000000000e+02,9.393371452337188998e+01,1.114970251278811871e-04,2.094349994028537481e+02,1.641978349957796729e-04
5.690000000000000000e+02,9.155528393435656653e+01,1.589346185328257134e-04,1.927236894325569381e+02,2.370148942999525507e-04
4.260000000000000000e+02,9.041239022362348976e+01,1.273929813003093104e-04,1.959931103348095007e+02,2.379284569458825699e-04
6.160000000000000000e+02,9.021654320496398327e+01,2.585236173713357263e-04,1.781671468634030759e+02,1.712409074711680550e-04
6.330000000000000000e+02,8.947083338793669327e+01,4.380991400041280904e-04,2.088435019901806129e+02,2.367165447479726301e-04
7.770000000000000000e+02,8.923482719986155587e+01,7.094042273579311605e-05,2.078374064764748823e+02,2.039051549846493481e-04
2.620000000000000000e+02,8.912109284791804953e+01,1.541812465463703486e-04,2.384340900584542737e+02,2.523908841860373351e-04
9.100000000000000000e+01,8.874040404177289076e+01,4.458667323973689923e-04,1.980048080343408685e+02,2.775211862160610458e-04
3.060000000000000000e+02,8.862429931401671013e+01,8.834414887769666280e-05,1.938770308348068454e+02,2.123906650436296407e-04
2.500000000000000000e+01,8.765072954744314870e+01,2.636651801077616081e-04,1.831360938143376984e+02,2.035957917723015768e-04
3.980000000000000000e+02,8.754240031428743407e+01,6.060370079732349449e-04,1.575954410386018480e+02,2.343339116203647617e-04
5.270000000000000000e+02,8.692405579230506874e+01,1.472723426151895782e-04,1.667070984506677576e+02,1.875399307105955011e-04
4.760000000000000000e+02,8.492072024052714596e+01,1.658522087796737222e-04,1.822052270443995781e+02,1.674159633675530710e-04
6.610000000000000000e+02,8.488708919913106854e+01,5.890473566280722204e-04,2.259026819553803591e+02,2.245516541583670136e-04
3.600000000000000000e+01,8.442180091610840975e+01,1.361847089471152018e-04,1.920924222100737779e+02,1.962247206907190137e-04
2.100000000000000000e+01,8.428235675828533147e+01,2.667639987511982746e-04,2.139167984113667274e+02,2.604799993057968954e-04
1.690000000000000000e+02,8.413563161868650297e+01,6.064245051560676717e-05,2.006544803267145483e+02,2.135413907747457944e-04
1.880000000000000000e+02,8.404651906050672494e+01,1.218566284745008959e-03,2.451184637442483165e+02,3.673074757017630136e-04
1.170000000000000000e+02,8.386801598349961751e+01,3.680835723578473211e-04,2.169362882058364050e+02,2.972882736544521704e-04
8.100000000000000000e+01,8.345457561877829278e+01,1.522144029197985081e-04,1.737700642486301490e+02,1.820358771345025506e-04
7.970000000000000000e+02,8.313257817509540359e+01,1.267825996648298435e-04,1.970921744652083873e+02,2.332548715640055776e-04
1.510000000000000000e+02,8.307033112732804625e+01,1.787394000767560912e-04,1.876754710525277119e+02,2.186296097047509305e-04
2.840000000000000000e+02,8.282396284441750822e+01,2.934961237281279731e-04,1.992504754288875120e+02,1.812431220168637480e-04
7.830000000000000000e+02,8.261761355690906328e+01,1.976272402095836933e-04,1.853434087567037238e+02,2.840612128228761873e-04
5.750000000000000000e+02,8.255609911117949196e+01,2.737822191062795358e-04,1.743653323923978462e+02,2.184646407446388526e-04
2.800000000000000000e+01,8.252021648540024046e+01,8.131101144969319814e-05,1.895606752567268813e+02,1.960931440729994288e-04
4.500000000000000000e+02,8.235635999357677406e+01,3.740355699288269438e-04,1.525910972996137502e+02,2.200214653629358082e-04
5.150000000000000000e+02,8.230283966162008369e+01,1.557409530110897991e-04,2.089331783101662836e+02,2.597512079200136855e-04
7.640000000000000000e+02,8.185788343581899085e+01,2.536083006810409398e-04,1.924493081526827041e+02,2.479203433109381611e-04
1.350000000000000000e+02,8.121930735554340686e+01,1.023867324359507624e-04,2.021708960361319782e+02,2.086377076530211575e-04
6.370000000000000000e+02,8.059892845336359812e+01,1.345660694562369575e-04,1.560844534971415669e+02,2.312453240819341261e-04
6.150000000000000000e+02,8.011050600157486201e+01,1.386104434471512623e-04,2.086245364751280249e+02,2.226747110068375696e-04
2.610000000000000000e+02,7.917708439647358887e+01,1.479163391375421031e-04,1.685382143054358153e+02,2.107396253845534857e-04
4.690000000000000000e+02,7.855308973010428986e+01,8.791106165218748433e-05,1.566275742680952590e+02,2.368958705314892213e-04
1.160000000000000000e+02,7.852325018399490375e+01,7.709662289517715133e-05,1.626748378041864100e+02,1.939939446918618169e-04
4.810000000000000000e+02,7.845587247690224331e+01,1.566786811705644456e-04,1.564608602183743642e+02,2.346110491153374691e-04
7.960000000000000000e+02,7.830772233248788439e+01,5.013239282182579504e-05,1.736797572543261481e+02,1.907068510639995339e-04
4.400000000000000000e+01,7.818574173677457395e+01,1.365656603008244389e-04,1.985375507074238044e+02,2.480970248736168041e-04
1.270000000000000000e+02,7.811481551109159227e+01,2.525469598888730621e-04,1.821512336442013407e+02,2.506317983210759864e-04
8.600000000000000000e+01,7.792460416797075595e+01,3.357263279788311639e-04,1.941647854262287751e+02,2.380935657591177893e-04
3.390000000000000000e+02,7.780658007042748636e+01,1.731124100054341503e-04,1.714281728938544802e+02,2.083769402591285306e-04
3.810000000000000000e+02,7.765840732224302201e+01,2.575392159888519549e-04,1.916117823695496725e+02,2.130555245900523590e-04
1.900000000000000000e+01,7.697256786204334844e+01,6.378117140727853403e-04,1.713871309470066535e+02,2.658410360895793008e-04
6.710000000000000000e+02,7.686125542868012417e+01,2.986298683501482053e-04,1.835113361129588725e+02,1.978398693767959775e-04
7.530000000000000000e+02,7.576499160860213067e+01,2.378813926601186751e-04,1.404086707143585500e+02,1.999392035411927957e-04
1.540000000000000000e+02,7.562437949701440232e+01,2.952795575365077551e-04,1.425881646670416956e+02,1.773755619501293215e-04
6.780000000000000000e+02,7.403809216594984832e+01,3.592964693016671181e-05,1.581760689580880808e+02,1.885761525387174480e-04
7.080000000000000000e+02,7.384849212591312551e+01,1.569299481980676039e-04,1.616852145596698733e+02,1.560376263383914000e-04
8.000000000000000000e+02,7.320365708440255048e+01,2.487972362954722670e-04,1.864783295620040633e+02,1.713461804492554820e-04
2.690000000000000000e+02,7.309507305960359247e+01,1.047338071686000404e-04,1.379469631617604648e+02,2.063827836703710180e-04
1.000000000000000000e+01,7.308153413025453915e+01,7.664967405890047011e-05,1.735831163492136682e+02,2.000744404704583477e-04
3.560000000000000000e+02,7.291164970794662281e+01,7.463822679795800382e-05,1.482548653730057140e+02,2.151435923675457725e-04
5.660000000000000000e+02,7.285968759702781483e+01,3.544538647988450323e-05,1.679490429532774840e+02,1.801634680417881363e-04
6.940000000000000000e+02,7.282442547316898640e+01,4.560311632635930456e-04,1.629057411740934924e+02,2.401879135376124963e-04
6.850000000000000000e+02,6.968975224901132037e+01,9.253095796622611707e-05,1.581626690801700761e+02,1.632549603534206402e-04
8.400000000000000000e+01,6.939297452147147283e+01,1.695654628611116283e-04,1.492955360293969136e+02,2.290139244567585377e-04
5.010000000000000000e+02,6.896172779042781542e+01,1.223572624801696194e-04,1.733245049680019179e+02,1.555551207563292903e-04
6.830000000000000000e+02,6.825707940522036665e+01,1.758835795534171079e-04,1.298262025939217210e+02,1.830922212915445655e-04
7.310000000000000000e+02,6.790756913018023511e+01,6.593107506953656803e-05,1.569360515052421192e+02,1.429930530571593109e-04
3.020000000000000000e+02,6.749688042704329405e+01,8.272572187897172440e-05,1.317186880920038732e+02,1.666600645629989698e-04
6.320000000000000000e+02,6.667268102772075622e+01,6.938515619331587722e-05,1.414602616212405906e+02,1.924119180122847315e-04
4.800000000000000000e+01,6.605136595125091503e+01,1.476526068231650559e-04,1.416365388153550668e+02,1.775365120501860817e-04
6.770000000000000000e+02,6.591031235910485009e+01,2.504811050946213085e-05,1.126925207937296705e+02,1.067149782000829960e-04
7.900000000000000000e+01,6.589507579682668847e+01,7.721348112240510725e-05,1.323569218235464291e+02,1.772081479805522790e-04
5.740000000000000000e+02,6.582917629649196556e+01,9.490203434882710741e-05,1.517816294239908359e+02,1.639575755122508951e-04
1.180000000000000000e+02,6.582765119278616339e+01,2.822875787598954126e-04,1.611279372898301574e+02,1.400362801918789612e-04
5.880000000000000000e+02,6.500280108537218382e+01,5.476074771422859448e-04,1.566434012277356373e+02,2.093219115880337882e-04
3.910000000000000000e+02,6.499994267764273559e+01,1.708648844204884603e-04,1.510703313731001742e+02,1.879427698713455450e-04
7.580000000000000000e+02,6.450498137480194316e+01,1.419315371341241597e-04,1.725490221348506452e+02,1.862528523957287401e-04
6.390000000000000000e+02,6.446227675573970828e+01,4.798364489083512788e-05,1.263210575572076948e+02,1.237772131320855659e-04
4.590000000000000000e+02,6.431892536946050143e+01,2.659809848597708554e-04,1.242808798890861226e+02,1.649730526781727311e-04
2.560000000000000000e+02,6.379930018013271109e+01,7.865864669691999148e-05,1.269707088481207791e+02,1.615116404447416792e-04
6.650000000000000000e+02,6.339848357775280618e+01,6.469065974541134340e-05,1.580982973402749110e+02,2.014449662637732090e-04
6.410000000000000000e+02,6.308432708965754188e+01,1.573806855330525667e-04,1.485569976159722785e+02,1.524017536811980787e-04
3.460000000000000000e+02,6.258518814536147090e+01,7.351060878752000826e-05,1.142174610623570317e+02,1.577203876464457872e-04
8.900000000000000000e+01,6.235729143299661814e+01,6.094533788240255823e-05,1.332146238064838997e+02,1.819712998465610289e-04
4.000000000000000000e+01,6.215346627722520623e+01,3.164378894033128588e-05,1.372187713577142176e+02,1.205884365255000646e-04
2.810000000000000000e+02,6.192429264222717933e+01,4.557789209066632628e-05,1.377050191286848246e+02,1.681846627175336429e-04
4.900000000000000000e+01,6.188742908934855080e+01,1.262699956873992904e-04,1.405820489975866394e+02,1.427371650585258604e-04
2.770000000000000000e+02,6.180848459372081294e+01,8.047904483289187462e-05,1.273102704362736404e+02,1.354539361013334985e-04
2.260000000000000000e+02,6.113534963268217837e+01,6.764096989556983271e-05,1.118327613279819133e+02,1.334706793987884836e-04
7.360000000000000000e+02,6.099517268665768199e+01,1.010192057806286647e-04,1.313171582108606401e+02,1.289196614441957378e-04
1.200000000000000000e+01,6.072334490761518566e+01,3.872686850557535449e-05,1.359703081961408770e+02,1.373264395900767481e-04
5.700000000000000000e+01,6.058943852686179810e+01,6.400811789204763347e-04,2.178376964646736269e+02,5.904229604337709854e-04
4.500000000000000000e+01,6.039189707309326849e+01,3.970946493896474464e-05,1.270847373530844919e+02,1.062022027805548639e-04
1.500000000000000000e+02,6.028113528015885692e+01,1.728605830424614464e-04,1.247992675136061962e+02,1.322998584293295476e-04
3.490000000000000000e+02,5.954784870281103792e+01,5.503806492800004637e-05,1.304990924620888961e+02,1.529265352557855552e-04
7.990000000000000000e+02,5.923471776651054199e+01,7.139139759348972882e-05,1.196345510108892540e+02,9.028265921948855420e-05
4.250000000000000000e+02,5.900350389047309818e+01,3.892329948650770957e-05,1.557311065961164047e+02,1.352454371367930010e-04
3.090000000000000000e+02,5.877796923250336647e+01,4.071929492092221149e-05,1.197776872990824586e+02,1.211942816965126522e-04
5.820000000000000000e+02,5.877218950388422769e+01,1.086764159547579160e-04,1.151796599917104231e+02,1.588021179706164724e-04
4.620000000000000000e+02,5.840262945707977593e+01,7.125587918953912381e-04,1.342300062936690210e+02,1.697161212936162771e-04
2.790000000000000000e+02,5.824355746395286815e+01,6.042417603402422686e-05,1.267127480952188563e+02,1.558101964850049841e-04
2.420000000000000000e+02,5.809887540001274431e+01,5.117866880685909367e-05,1.147589581626792210e+02,1.147999096137615065e-04
5.520000000000000000e+02,5.768650034953077466e+01,4.622580947787139618e-05,1.220038367927663927e+02,1.309055798563874148e-04
7.100000000000000000e+02,5.734531648295928363e+01,3.768377696542800842e-05,1.200699677153659763e+02,1.369978035089599460e-04
1.770000000000000000e+02,5.689946164772862858e+01,7.311544511731559912e-05,1.324741255421770916e+02,1.688467238890695393e-04
7.560000000000000000e+02,5.676797101245694677e+01,1.798106999536951849e-04,1.312634915568182521e+02,2.006767181800930063e-04
6.630000000000000000e+02,5.675949922355474087e+01,4.571831759669010880e-05,1.114151033516608322e+02,1.169873210001052231e-04
4.950000000000000000e+02,5.672667479830415971e+01,3.403925697941090475e-04,1.097079418913746451e+02,1.006380198038544057e-04
7.270000000000000000e+02,5.668589324536925744e+01,2.846424953590789408e-04,1.132645715130894928e+02,1.673221602722829889e-04
5.250000000000000000e+02,5.631747416393961458e+01,6.939392534062072842e-05,9.843923679331426513e+01,1.343376006604245275e-04
6.000000000000000000e+02,5.620966455912946458e+01,7.384632948874477062e-05,1.171541290184216990e+02,1.307563002364140652e-04
1.820000000000000000e+02,5.611259910111130722e+01,5.260729728826951548e-05,1.200084112750299425e+02,1.358680864829625633e-04
5.000000000000000000e+02,5.587738725576630827e+01,1.412229651854430548e-04,1.279043911824032165e+02,1.122737330569024663e-04
3.220000000000000000e+02,5.558440922685273478e+01,8.317994327803082363e-05,1.158494618380935890e+02,1.509070856346889122e-04
5.320000000000000000e+02,5.517041361430643320e+01,1.352540817027426511e-04,1.083627367488014812e+02,1.369811689861435142e-04
3.130000000000000000e+02,5.510264719146049117e+01,8.044130783349263524e-05,1.144643472231731920e+02,1.413044756279268829e-04
7.150000000000000000e+02,5.495848635863173115e+01,5.739461045503097312e-05,1.393841597893479900e+02,1.439678499794651203e-04
9.800000000000000000e+01,5.421057001478694559e+01,4.390020681719146152e-05,1.171500422936971972e+02,1.205845179717760489e-04
3.340000000000000000e+02,5.379336542040800850e+01,1.390935257536873762e-04,1.014595671253844387e+02,1.309541439324795080e-04
4.790000000000000000e+02,5.379076426135260647e+01,2.533228136948690234e-04,1.185535390268613156e+02,1.543698281206594609e-04
5.060000000000000000e+02,5.342984756522721312e+01,4.991842745697655206e-05,1.142416162404268505e+02,1.651203134479896416e-04
7.140000000000000000e+02,5.338245785796602405e+01,3.702093692230741854e-05,1.144359649739543414e+02,1.330904221007223368e-04
7.000000000000000000e+00,5.334482495108429134e+01,2.072450192612678994e-04,1.668222297868750559e+02,1.378389466280113471e-04
6.550000000000000000e+02,5.326149409495813103e+01,1.146939773204085831e-04,1.609746863891049600e+02,2.833592292962794010e-04
7.030000000000000000e+02,5.273252949286820268e+01,6.577942568624200168e-05,1.108184372619023605e+02,1.133967162686327131e-04
7.260000000000000000e+02,5.260999878876484814e+01,4.428521812001440765e-05,1.160238255880028362e+02,1.495379285721465444e-04
5.070000000000000000e+02,5.250480183793571598e+01,9.345396102470294683e-05,1.240762376594095997e+02,1.419511772754948988e-04
3.040000000000000000e+02,5.226539874629225579e+01,5.875235369248996478e-05,1.023046496254679170e+02,1.335499396950713539e-04
4.910000000000000000e+02,5.201107499703174142e+01,1.123367644603382695e-04,1.165684796816157416e+02,1.143027197640888971e-04
5.430000000000000000e+02,5.182485461994691178e+01,5.945212465683150771e-05,1.195395380745366651e+02,1.123541525494757120e-04
5.900000000000000000e+01,5.180247595092823332e+01,7.291603145808895953e-05,1.281728187651830524e+02,1.158768590086592615e-04
3.510000000000000000e+02,5.069737281472786350e+01,2.352836061965037846e-05,1.138121962047494264e+02,1.577095360384323821e-04
8.000000000000000000e+01,5.064751606653523197e+01,1.054004450914929324e-04,1.037029500881108959e+02,1.489709225498979980e-04
4.870000000000000000e+02,5.045133979395647117e+01,1.109729813335530950e-04,1.063721055466648266e+02,1.064472596047949152e-04
2.450000000000000000e+02,5.044470996514692018e+01,8.036435137149794264e-05,1.040567241756266696e+02,2.247559984864514100e-04
3.820000000000000000e+02,5.028803162315902853e+01,1.069166430700916069e-04,1.060983262500902669e+02,9.554116684303569677e-05
2.750000000000000000e+02,5.001844493234781908e+01,6.139829450116016368e-05,1.005404857939322767e+02,1.177804113836759315e-04
3.640000000000000000e+02,4.988517757674964770e+01,5.237642364945937329e-05,9.492876293871717053e+01,1.326593848089171579e-04
1.340000000000000000e+02,4.980619982279995384e+01,2.518680523524272451e-05,1.187727909016993237e+02,1.361940601149828336e-04
5.580000000000000000e+02,4.957368515394450981e+01,2.113443910262206545e-05,1.107445042131643618e+02,1.023218733299202475e-04
3.930000000000000000e+02,4.948883167763728608e+01,4.670891670334416162e-05,1.012633337106547771e+02,1.097792382484143176e-04
2.410000000000000000e+02,4.942038677554584325e+01,3.570208818174054935e-04,1.115797007738824504e+02,1.344204326071926127e-04
7.510000000000000000e+02,4.918056332403192243e+01,7.527415539291199616e-05,1.050942548957041112e+02,1.163139901755915536e-04
1.520000000000000000e+02,4.911076302666599247e+01,1.187066746538905992e-04,8.584559926440283562e+01,1.279960788898003310e-04
1.930000000000000000e+02,4.772899022775903433e+01,4.443731541881490199e-05,1.046556036529797922e+02,1.065351067025331573e-04
1.710000000000000000e+02,4.761253762803035272e+01,2.441843448733234536e-05,1.021374596704800126e+02,9.961664105987424144e-05
1.790000000000000000e+02,4.741514554859840302e+01,8.378648255744859034e-05,9.961680378402687097e+01,1.394093985104114712e-04
5.940000000000000000e+02,4.725484300900356516e+01,6.635981019526015785e-05,9.910710637972741210e+01,1.529420512441001230e-04
4.360000000000000000e+02,4.700569247532056494e+01,4.795018631760778578e-05,8.830063123400516645e+01,1.440374057937031274e-04
6.670000000000000000e+02,4.699055848915774192e+01,6.494950271774398382e-05,1.181000794297939080e+02,1.180498890822086601e-04
4.330000000000000000e+02,4.682254137688192941e+01,4.692361693394844427e-05,9.024902790842170930e+01,1.262962072642117596e-04
4.550000000000000000e+02,4.666150062382307340e+01,1.012473774856364735e-04,1.075604525491863512e+02,1.258557716291070665e-04
1.240000000000000000e+02,4.642831445570116955e+01,4.098992424475918694e-05,9.386357597724619950e+01,1.210222091248908875e-04
5.100000000000000000e+02,4.597484290550968211e+01,3.274720669499159054e-05,9.296980810371526616e+01,1.024696926460776710e-04
4.370000000000000000e+02,4.558517721511321241e+01,4.931458926985655906e-05,8.732011771339301731e+01,1.373381672684956094e-04
3.200000000000000000e+01,4.554882660597329647e+01,1.814227188488931023e-04,1.065145668335492957e+02,1.717460922321436536e-04
4.460000000000000000e+02,4.536130938885654018e+01,3.839487015298738285e-05,1.031911614237074559e+02,1.208210203650277395e-04
1.830000000000000000e+02,4.527953148819989337e+01,9.511921365185985731e-05,1.019327379313424160e+02,9.227995413090750367e-05
3.110000000000000000e+02,4.474008546150726318e+01,3.760869696881111835e-05,1.015893976835710504e+02,9.969397595174732374e-05
2.380000000000000000e+02,4.455422939204893140e+01,2.288570950669123106e-05,9.817097328365872499e+01,1.018474540065201795e-04
1.840000000000000000e+02,4.444694919669189659e+01,4.399835843808668769e-05,8.848058475459221484e+01,1.013341721117466915e-04
1.990000000000000000e+02,4.432678386322989894e+01,1.101617057549169823e-04,9.677121904010149933e+01,8.423973184101231566e-05
7.200000000000000000e+02,4.432470318622367245e+01,1.096243564060375665e-03,3.403044334368913724e+02,1.453116488181601220e-03
7.480000000000000000e+02,4.420114479421996379e+01,4.932660750006306010e-05,8.521825415788379132e+01,6.382486432481235543e-05
2.000000000000000000e+02,4.396899174778176445e+01,3.645934630442031161e-05,9.879495601314468445e+01,1.220069691274779312e-04
5.710000000000000000e+02,4.378945072756734902e+01,2.736348744850853744e-05,9.150725654169372092e+01,1.023758418848228228e-04
2.970000000000000000e+02,4.344004316278491729e+01,2.965829057317463180e-04,9.379295946253412808e+01,1.455117643098722516e-04
1.480000000000000000e+02,4.322943415186155391e+01,7.288852434241234132e-05,9.084586812783614107e+01,1.273302964250312111e-04
1.800000000000000000e+01,4.312305804132316212e+01,7.574992564979674437e-05,1.034965094122544116e+02,1.308800143083526193e-04
1.400000000000000000e+01,4.310247214062343346e+01,1.143665358096869087e-03,5.105263815744314115e+02,1.593327163750105991e-03
7.470000000000000000e+02,4.289898595808094228e+01,1.798711155703637711e-05,1.035159518808153081e+02,8.556772460777065244e-05
4.920000000000000000e+02,4.268164353428208102e+01,2.897170498040324170e-05,9.472981996574577579e+01,7.207530860483038742e-05
7.300000000000000000e+01,4.250822470844394019e+01,5.865715240680767143e-05,9.098523956540583413e+01,1.188370058656532601e-04
3.150000000000000000e+02,4.239112750277113406e+01,9.063220696421648518e-05,8.590804287480588641e+01,1.502522465640801312e-04
1.420000000000000000e+02,4.227873123626061158e+01,2.753000489014209275e-05,8.500336551912356242e+01,7.728823890094616781e-05
3.630000000000000000e+02,4.214694610508311712e+01,3.601424207456333431e-05,8.514824700646732936e+01,9.294941439999406354e-05
6.440000000000000000e+02,4.189181147495305169e+01,1.530674216690308724e-05,1.263416559879663055e+02,1.073566276348261305e-04
1.530000000000000000e+02,4.154671675369645101e+01,8.222740879174762860e-05,9.106316321413117976e+01,1.091589660938913423e-04
6.400000000000000000e+01,4.097607320926945818e+01,3.261607583066455658e-05,9.166883914947133860e+01,1.081252622743608519e-04
2.630000000000000000e+02,4.078099464216258241e+01,1.210838264980200810e-04,8.510689041577933267e+01,1.190641306571909691e-04
3.880000000000000000e+02,4.054734096824810052e+01,2.907577811622861098e-05,8.040608243419296741e+01,1.020681742469758426e-04
3.500000000000000000e+02,4.050187135355171364e+01,1.352529795511846981e-04,7.895454641852403199e+01,8.480008283220508548e-05
7.290000000000000000e+02,4.038473885035857336e+01,6.391147032814144214e-05,9.046761317060835950e+01,9.489161833082906722e-05
4.720000000000000000e+02,4.031333597811195801e+01,3.851501147031874699e-05,8.694894922237719470e+01,8.634534468408669352e-05
2.650000000000000000e+02,4.026656761951311836e+01,8.120253881144198261e-05,7.364458616226409049e+01,9.743010038501233533e-05
1.130000000000000000e+02,4.009862271958596835e+01,3.441679234596846295e-05,7.762943137549709149e+01,8.985103961546595474e-05
3.860000000000000000e+02,4.008792192242361097e+01,8.379498138179640237e-06,9.015774124650769750e+01,4.941509305363562523e-05
1.680000000000000000e+02,3.972182979384173507e+01,7.055620053178725444e-05,8.569807853353746907e+01,1.424744080383603885e-04
3.610000000000000000e+02,3.970343449161558880e+01,5.068198020054421742e-05,8.706648538630690837e+01,9.059611752337006190e-05
5.900000000000000000e+02,3.956490563811749439e+01,4.318257702950776758e-05,9.144351218561462247e+01,9.464532383235608505e-05
3.830000000000000000e+02,3.930917227896888022e+01,5.384548663224342051e-04,2.267686068826365897e+02,8.616937036769948925e-04
2.920000000000000000e+02,3.891582764500257952e+01,4.919809039289234007e-03,1.176911462423829107e+03,5.816223301270129209e-03
5.760000000000000000e+02,3.889684993461844442e+01,6.853818229139552025e-05,9.484845689864647511e+01,7.536953465637707635e-05
6.180000000000000000e+02,3.875219456668432372e+01,2.030256818927777184e-04,1.058081581309462393e+02,3.758717070227573500e-04
5.730000000000000000e+02,3.865572898322746909e+01,2.682827969582344900e-05,8.043304780665300768e+01,7.609288077332286267e-05
3.740000000000000000e+02,3.828794725546200084e+01,2.683269573990466303e-05,8.644830437536499801e+01,8.594720410403244458e-05
2.870000000000000000e+02,3.811510630045415837e+01,6.712028404840047699e-05,8.515267505102757184e+01,1.013493665282333910e-04
6.540000000000000000e+02,3.807059592094718425e+01,7.401923383378351015e-05,8.214433067099548680e+01,9.987855886788611366e-05
5.280000000000000000e+02,3.796795730274216396e+01,1.713721686536927554e-05,7.732803027792728301e+01,6.910655844630543272e-05
5.530000000000000000e+02,3.782939887500782561e+01,3.050245729254374036e-05,6.392396304552853081e+01,7.203047144684542958e-05
5.680000000000000000e+02,3.728546856626761752e+01,4.031405038678070624e-05,7.733864891212347459e+01,7.384838717386098023e-05
5.260000000000000000e+02,3.665286924120897538e+01,2.717415769330128509e-04,1.448955523845807249e+02,3.764562369000093228e-04
7.780000000000000000e+02,3.658122421137264979e+01,1.448621631222441700e-04,7.494888590721627963e+01,1.088936865656618284e-04
5.400000000000000000e+02,3.647824053662949240e+01,1.816667526678564923e-05,7.447858433473200535e+01,7.524962989534884970e-05
3.300000000000000000e+02,3.628276059543271259e+01,1.859791865446514599e-04,7.960934353698949906e+01,9.593663288127657145e-05
2.100000000000000000e+02,3.622202068830646482e+01,2.373287418824293247e-04,6.695244811097558113e+01,6.456109959879941667e-05
4.470000000000000000e+02,3.619377376921408995e+01,2.255613176150449731e-05,8.688344406990795221e+01,6.865786056939752525e-05
6.820000000000000000e+02,3.614418903224370894e+01,3.797571737766894119e-05,8.087121399213665995e+01,1.014400003435285549e-04
2.070000000000000000e+02,3.611809373259480083e+01,4.315901306947735592e-05,8.799648099280858560e+01,1.146292668269947607e-04
7.350000000000000000e+02,3.593340184852131358e+01,9.228944889713770641e-05,7.224188180943900761e+01,1.000867665595259691e-04
6.810000000000000000e+02,3.591529937080846935e+01,3.539613681449302795e-05,7.624498933587177874e+01,7.774341512204613076e-05
6.070000000000000000e+02,3.575835591373245848e+01,9.792247072090419263e-05,7.504144920990350442e+01,8.600792651579265431e-05
2.740000000000000000e+02,3.567262352772955580e+01,1.170980383976869492e-04,6.698338333312172210e+01,8.119579805938104209e-05
9.900000000000000000e+01,3.559094703541725124e+01,4.243496468730067784e-05,6.231988210640449211e+01,9.931647274389461771e-05
6.690000000000000000e+02,3.556510249366595389e+01,1.449577144550752420e-05,6.892614634136691620e+01,1.255356976896589724e-04
1.600000000000000000e+01,3.528082390582649452e+01,8.177998660211873198e-05,7.596031006572243882e+01,9.610200908723455482e-05
6.890000000000000000e+02,3.481013397232317885e+01,2.661452106278416728e-05,7.790612324984451220e+01,9.777502339682796412e-05
4.990000000000000000e+02,3.477596481493640113e+01,8.932462966216919362e-05,8.391857906563738823e+01,8.257669264343151893e-05
3.540000000000000000e+02,3.427744326023103838e+01,1.388736114322314616e-05,7.000716728193400229e+01,4.993535683438186912e-05
3.710000000000000000e+02,3.390622975331019973e+01,3.619697288638607354e-05,9.489552608710241088e+01,9.337287942889457479e-05
5.180000000000000000e+02,3.368855151147214855e+01,3.566071654435512160e-05,6.619612833058593537e+01,9.102115624146190167e-05
3.330000000000000000e+02,3.356749518539845667e+01,7.244578525268160617e-05,6.596186742156875482e+01,1.079875370051784243e-04
6.520000000000000000e+02,3.346101936452250669e+01,1.868034246704399203e-05,6.854775012030977166e+01,5.744587033729697936e-05
4.290000000000000000e+02,3.324249967526063898e+01,3.118370718868041565e-04,1.786743747210336721e+02,2.994619405781299201e-04
3.230000000000000000e+02,3.307370615529493563e+01,3.091450521207053572e-03,4.752568175395152252e+02,3.650263613489114923e-03
6.680000000000000000e+02,3.291489761813133441e+01,7.234021246389812075e-05,8.011873983631089402e+01,8.363442115776413262e-05
5.800000000000000000e+02,3.237187467129496810e+01,3.151256709787358322e-05,7.278907931839164291e+01,6.239226085317138776e-05
4.780000000000000000e+02,3.186502026528711085e+01,2.061314654351559743e-05,6.921819440694972059e+01,7.740089516063604358e-05
6.760000000000000000e+02,3.150129443963805898e+01,7.476737737149955236e-05,6.934003100727582591e+01,8.593221498285048105e-05
1.000000000000000000e+00,3.137104153625580238e+01,3.046872900409210546e-05,6.015325326559462837e+01,7.612611253264033365e-05
3.300000000000000000e+01,3.106591761577602284e+01,2.777254453695352388e-05,8.095163263998431091e+01,7.858055141584164064e-05
2.990000000000000000e+02,3.104593827575220288e+01,2.555190518351825197e-05,6.487935711751998724e+01,7.957583441453263654e-05
6.420000000000000000e+02,3.074920307150200216e+01,8.140210368763853050e-05,7.436583475067406823e+01,7.766106382091282926e-05
3.380000000000000000e+02,3.035325426028333595e+01,4.759687723523501739e-05,5.870235938584571755e+01,6.431673359480823040e-05
4.600000000000000000e+01,3.034947834774237663e+01,2.972262258004082952e-05,7.084961991462313335e+01,8.356494605579395450e-05
4.080000000000000000e+02,2.999272101317026440e+01,8.626547820960813091e-05,6.567223590198003080e+01,8.749814638267343347e-05
6.510000000000000000e+02,2.988876182365391543e+01,3.182692965857066215e-05,6.282528197633217104e+01,6.271482020353384441e-05
4.070000000000000000e+02,2.979630827064138288e+01,4.398366745488192759e-05,6.921987544677801907e+01,8.669870695280551597e-05
3.120000000000000000e+02,2.897339678338221347e+01,2.347919848957830957e-05,6.328193989656850960e+01,5.967790409547307225e-05
6.310000000000000000e+02,2.867624647875574695e+01,6.029407803686405540e-05,6.862311634619055667e+01,8.874211673243648669e-05
4.170000000000000000e+02,2.839577872655823754e+01,3.053250441194835197e-05,5.813618143414737460e+01,5.922499632321091877e-05
9.700000000000000000e+01,2.802597100719724565e+01,9.943994021307926180e-05,6.277525169445167563e+01,7.980714557242415432e-05
2.800000000000000000e+02,2.748756461534535944e+01,4.464480847200029233e-05,6.033613653562479584e+01,6.684965377557153146e-05
5.200000000000000000e+01,2.739148097649141178e+01,2.931112138143973731e-04,2.502027715461196635e+02,3.877896678928586236e-04
5.600000000000000000e+02,2.695691361918667894e+01,1.563808288859768679e-05,5.424826682398985156e+01,5.404338246513118443e-05
5.460000000000000000e+02,2.635969254930192562e+01,1.726905958276734969e-05,5.522790630544192680e+01,6.286880301626561951e-05
5.550000000000000000e+02,2.615484027703623227e+01,2.070138121734302596e-05,6.024425551892128539e+01,6.734987216442251930e-05
5.340000000000000000e+02,2.613624542099795889e+01,4.717845022599927190e-05,6.303785008051792005e+01,8.116125038424074328e-05
1.290000000000000000e+02,2.548224753450009317e+01,3.511637990638224598e-05,5.676697793566392392e+01,7.731697124270723426e-05
4.230000000000000000e+02,2.492725243574609806e+01,1.583942860471577706e-05,5.795198770685679079e+01,5.075696233139628545e-05
4.030000000000000000e+02,2.473867801981379344e+01,2.372577495789073013e-05,5.099617645730444337e+01,6.783927310813297714e-05
4.630000000000000000e+02,2.460042606544058685e+01,1.688862772221125165e-05,5.782852548436109430e+01,7.191594936642532244e-05
6.090000000000000000e+02,2.439314458917078809e+01,2.780053811622871119e-03,7.073816006041829496e+02,3.464064994718718624e-03
4.710000000000000000e+02,2.434865168036651895e+01,1.838783219790940306e-03,7.666692133053376210e+02,2.577627965440025971e-03
7.600000000000000000e+02,2.376346905429312528e+01,1.751947691446330038e-05,4.028422540525816231e+01,5.415370490713520733e-05
4.100000000000000000e+02,2.371442933418927268e+01,8.008261519065657018e-04,2.662471203676388427e+02,7.964669270414791863e-04
4.900000000000000000e+02,2.339057040399554310e+01,9.962705095645998869e-06,4.921125365421977449e+01,7.467170961083447931e-05
1.600000000000000000e+02,2.322387468358710905e+01,7.711138767202940748e-05,5.501560661305720146e+01,6.346882065982091135e-05
3.500000000000000000e+01,2.313341111394180061e+01,1.378336057794081523e-05,4.867677839761447700e+01,4.468286397929220632e-05
7.500000000000000000e+02,2.309754961494695280e+01,2.772393751437739144e-05,5.573801229320989137e+01,6.416729871568247672e-05
4.520000000000000000e+02,2.271648586855440399e+01,4.498784353001688131e-05,4.769997427517697730e+01,6.065060972906872490e-05
6.220000000000000000e+02,2.237986424886502945e+01,2.081490956073335893e-05,4.520693514743300057e+01,5.117901164040155947e-05
4.880000000000000000e+02,2.225708193174828509e+01,1.195699422512740958e-05,4.424589752671741394e+01,4.122442342697749850e-05
7.210000000000000000e+02,2.212877828572424832e+01,4.759121932591268885e-05,3.982637850748606922e+01,5.260835087022855747e-05
6.720000000000000000e+02,2.174044242701272012e+01,8.677491681972961473e-06,5.062074462880937631e+01,4.570887013335931005e-05
3.760000000000000000e+02,2.169750359520075733e+01,1.797257172176216353e-05,4.297545475058834086e+01,5.043705279638224114e-05
5.810000000000000000e+02,2.115464393349454042e+01,1.461852051818550613e-05,4.615211380553160581e+01,6.937449074532758429e-05
6.860000000000000000e+02,2.105403737019481625e+01,1.755315120178140085e-05,4.476908407243024612e+01,4.312685747037316847e-05
4.800000000000000000e+02,2.018595462131217744e+01,6.457976370763077883e-05,4.876204174709932460e+01,7.376116245258212175e-05
4.600000000000000000e+02,1.957244698557232354e+01,1.290324345139925464e-05,4.224019993501817538e+01,5.907248061336088993e-05
3.320000000000000000e+02,1.953746538333898286e+01,9.757260817833696633e-06,3.624954244551117455e+01,5.351688729110352667e-05
6.800000000000000000e+01,1.946975713735663760e+01,1.196700007062573668e-05,4.536844124430889735e+01,4.740218031268305634e-05
1.630000000000000000e+02,1.938625769586134595e+01,1.348127701262937601e-05,4.147191460095336168e+01,4.729747158049219023e-05
5.000000000000000000e+01,1.850796852028053863e+01,1.066840645852151366e-05,4.131328167630280035e+01,7.198988349929212258e-05
2.440000000000000000e+02,1.850676644106026458e+01,4.526431502017199543e-06,3.397846273558721464e+01,2.027487154519478461e-05
4.830000000000000000e+02,1.835406201127848647e+01,1.474025781247030572e-05,4.173245531286887910e+01,5.169747768240396383e-05
6.920000000000000000e+02,1.815259338814444234e+01,1.921335393454557191e-05,3.982251740005698792e+01,4.827222072925105398e-05
4.640000000000000000e+02,1.774465276129475555e+01,4.723868045982217156e-03,1.035872568060926142e+03,5.755534742132270218e-03
9.400000000000000000e+01,1.761828990784592008e+01,7.450612462047581197e-06,3.756312911403592381e+01,3.143153567884816006e-05
1.970000000000000000e+02,1.688203587382217918e+01,7.436715282036851487e-06,3.825026423222377048e+01,3.254885147107064680e-05
3.550000000000000000e+02,1.685934007912102928e+01,1.517520960096963173e-05,3.628598521125147158e+01,4.006941168057944299e-05
3.410000000000000000e+02,1.636334242116262416e+01,2.250991063827489786e-05,3.529091399533787410e+01,4.765594934259654940e-05
4.960000000000000000e+02,1.609187047593022868e+01,2.220248654881138423e-05,3.754071060658327497e+01,3.813390151639972170e-05
4.580000000000000000e+02,1.586526577095738055e+01,1.583415552505415704e-05,3.094954859606945874e+01,2.988037916472262800e-05
6.170000000000000000e+02,1.571283433226841275e+01,2.086792848756676439e-05,2.964663885659435039e+01,3.531101345796809892e-05
7.570000000000000000e+02,1.552985656189230923e+01,6.815358091895255082e-06,3.375958182187923740e+01,2.912770234237033217e-05
5.300000000000000000e+01,1.536346721721608866e+01,3.319558533311158676e-05,3.390657047747180997e+01,3.764642072878320467e-05
3.700000000000000000e+01,1.490693329237756437e+01,1.057787971934831244e-05,2.662670945816632440e+01,4.066956595849355061e-05
3.660000000000000000e+02,1.467758647918365078e+01,1.566689342586261756e-05,3.165485707218797984e+01,3.743258443054717330e-05
3.470000000000000000e+02,1.412430121379097514e+01,8.713519777728571730e-06,2.723908975235420726e+01,3.621305826138052265e-05
1.940000000000000000e+02,1.397635007990857936e+01,9.908447962615832757e-06,2.451766029554229576e+01,4.766604194166634752e-05
1.850000000000000000e+02,1.359957019259135436e+01,5.063129113175392473e-06,3.040125917622992446e+01,4.052078300145095410e-05
6.020000000000000000e+02,1.329874727434920167e+01,2.808215356345826477e-05,2.989824753865556417e+01,3.898973369752869864e-05
3.780000000000000000e+02,1.284581764362905432e+01,7.263553759007383459e-06,2.637186722959730645e+01,2.616122298484072157e-05
6.300000000000000000e+02,1.259453282389871553e+01,1.683214513152375344e-03,4.461788486117862362e+02,2.028720305896826448e-03
3.000000000000000000e+00,1.244434811114004802e+01,7.937161143262106908e-06,3.010788915129386112e+01,3.799587026026336625e-05
5.480000000000000000e+02,1.223587978502413165e+01,4.005489945263712888e-03,1.097410900160192114e+03,5.127108249907010029e-03
7.940000000000000000e+02,1.191957635949821359e+01,2.046314700748017764e-05,2.430727431889570056e+01,4.043966448969780049e-05
2.000000000000000000e+00,1.139971908412382184e+01,2.114184617292505988e-05,2.272683750732694818e+01,2.392145336224948214e-05
2.580000000000000000e+02,1.092833717106770663e+01,2.949677467138849679e-03,5.027952839439103627e+02,2.874169741614000448e-03
5.410000000000000000e+02,1.027310120326570875e+01,2.466880816859326697e-06,2.584862026505625821e+01,2.100606883446875964e-05
3.770000000000000000e+02,1.025883190498645980e+01,3.639342886926368991e-03,8.256467219133562594e+02,3.834002140472773153e-03
1.090000000000000000e+02,1.007947696462943021e+01,1.220740190596457214e-05,2.108147818895428571e+01,3.425266654034098417e-05
2.660000000000000000e+02,9.561700738055201043e+00,2.330169194530446253e-05,2.135092431142327385e+01,2.011779947328869847e-05
2.830000000000000000e+02,9.543772489338831377e+00,3.274696023456599292e-06,1.431971812264978006e+01,1.217628639124577092e-05
7.520000000000000000e+02,8.844409961353145277e+00,7.162641831447818554e-03,1.026993406924968440e+03,8.083938098372215469e-03
2.330000000000000000e+02,7.003759512681623889e+00,6.601760936771424891e-05,1.461353202747496205e+01,1.665640751610835674e-05
3.690000000000000000e+02,6.977040822975848933e+00,4.705769078534131109e-06,1.742123395393183927e+01,1.778059604328080816e-05
5.970000000000000000e+02,6.597704306766521754e+00,6.086812737806346872e-03,1.256664097522619841e+03,6.278566595288862656e-03
2.360000000000000000e+02,6.251834596506867570e+00,3.612895710290631515e-03,9.714115835622642408e+02,3.986013457761319358e-03
2.940000000000000000e+02,5.768956954310958452e+00,1.054885541060365979e-05,1.214487028386742473e+01,1.319156575758569726e-05
7.130000000000000000e+02,3.197724952984529079e+00,5.551232810522345766e-04,1.227679743384498465e+02,5.409453437372848707e-04
