7.100000000000000000e+01,1.155769804353766688e+02,6.768103418945185757e-04,2.548388499512088572e+02,3.534694740732660764e-04
2.845000000000000000e+03,1.079748408940462667e+02,4.510268968290900371e-04,2.343124538594943544e+02,2.527574028695234328e-04
8.670000000000000000e+02,1.012430250959758808e+02,8.533437244956314617e-04,2.559905669399040846e+02,2.789608867378337402e-04
1.104000000000000000e+03,9.354837067514939974e+01,5.653354934076697908e-04,2.043333612416495271e+02,2.179331264490665381e-04
2.895000000000000000e+03,8.419465297058931696e+01,1.210429697452439397e-03,1.933562535162545828e+02,2.818605022660269346e-04
5.670000000000000000e+03,8.303447312733652552e+01,7.396507811360277223e-04,1.716206596401988236e+02,2.200231559079956242e-04
3.954000000000000000e+03,6.806113722627105744e+01,1.040091320290365343e-03,1.646609686258702823e+02,2.325541145746888171e-04
2.549000000000000000e+03,6.760614418344718501e+01,2.191647581482007311e-04,1.375600473006448681e+02,1.596714089162589367e-04
5.572000000000000000e+03,6.651104990048415289e+01,6.443756967414053299e-04,1.555484452331621128e+02,2.011134387617885631e-04
5.987000000000000000e+03,6.585309308061700051e+01,4.365957636932912942e-04,1.414116108841811581e+02,1.894114365677888976e-04
9.720000000000000000e+02,6.576326084789424442e+01,9.417592212379451936e-04,1.395084422843177663e+02,2.029737530407637886e-04
4.117000000000000000e+03,6.462107492424152611e+01,3.486010225819470868e-04,1.301714686244182531e+02,1.482828935834534215e-04
6.955000000000000000e+03,6.441497749954812946e+01,2.861809264856436034e-04,1.443758697021028468e+02,1.593053707307054054e-04
5.935000000000000000e+03,6.425810086634885465e+01,6.631784251884724826e-04,1.442624330718122110e+02,2.066184105123179519e-04
1.240000000000000000e+03,6.395035331990533223e+01,2.861634285163636464e-04,1.403572452091592027e+02,1.731418483843928766e-04
4.815000000000000000e+03,6.079697886332674273e+01,2.998447248214773718e-04,1.216118157647571820e+02,1.548796864920747940e-04
5.616000000000000000e+03,6.044761034571371994e+01,5.731906195674640707e-04,1.264669670294840813e+02,1.772811107273086957e-04
1.824000000000000000e+03,6.034483245761015979e+01,3.954746085463112584e-04,1.182342579126920299e+02,1.873675558114997136e-04
6.210000000000000000e+02,6.008898910379213021e+01,3.187738225376929649e-04,1.403065156582083546e+02,1.561726930860433320e-04
4.218000000000000000e+03,5.938499951561468038e+01,4.725438969259342591e-04,1.209171875896953168e+02,1.641081785170616964e-04
2.738000000000000000e+03,5.772968103442762100e+01,4.205178180525940071e-04,1.276505747443584795e+02,1.646881523478421793e-04
2.499000000000000000e+03,5.729332062573173801e+01,2.173274486368357585e-04,1.127519516707283600e+02,1.506916201648980571e-04
7.063000000000000000e+03,5.694366685752792279e+01,7.742416942639639751e-04,1.230203350333007108e+02,1.813825317790481026e-04
4.952000000000000000e+03,5.597352559228208690e+01,8.529965128039103818e-05,1.273275365630254328e+02,1.305478806068686027e-04
6.755000000000000000e+03,5.382782970165967384e+01,5.950521380898387116e-04,1.183018644302704274e+02,1.749854965793903796e-04
4.658000000000000000e+03,5.287398603266004216e+01,1.244299055338291655e-04,1.114552861012369789e+02,1.402113693214098833e-04
2.326000000000000000e+03,5.247811232180530538e+01,6.890137219653169956e-04,1.120823876138878035e+02,1.659093003203503482e-04
3.446000000000000000e+03,5.174579590650327532e+01,2.017179553036506584e-04,1.070725543177805008e+02,1.202607266405335008e-04
7.100000000000000000e+03,5.043994189068290268e+01,4.900967611801425490e-04,1.050584277767511026e+02,1.416345653409831944e-04
6.285000000000000000e+03,5.031691245783956390e+01,2.245801029371795538e-04,1.287479096051714009e+02,1.373768861393110524e-04
5.591000000000000000e+03,4.836842832568962081e+01,3.127305651209858102e-04,1.112558467303727099e+02,1.665422761476871203e-04
1.691000000000000000e+03,4.836384884651474181e+01,5.599650631801758767e-04,1.103077450757860589e+02,1.610342464527514123e-04
4.019000000000000000e+03,4.708787453581112459e+01,7.906456613559633513e-04,1.095190761058440359e+02,1.699170378858947587e-04
2.820000000000000000e+02,4.657400658007089334e+01,1.554431061332721018e-04,8.922264196093063049e+01,1.142452187937540440e-04
1.420000000000000000e+03,4.624775130951698543e+01,4.393310940645415281e-04,9.597573559011610200e+01,1.403575126744563797e-04
5.465000000000000000e+03,4.581200311116725743e+01,2.434098645540266090e-04,1.036454953559815522e+02,1.230832911616706611e-04
1.753000000000000000e+03,4.566100145422340262e+01,6.371051351591063526e-04,1.057576463183618785e+02,1.318198775424260743e-04
2.710000000000000000e+02,4.512241637693995955e+01,3.353512621820746160e-04,1.000853422590943751e+02,1.653164049085835104e-04
5.920000000000000000e+02,4.449400200253268167e+01,7.684482302726844752e-03,1.661347751518458836e+03,1.315718172910954747e-02
3.660000000000000000e+03,4.376115208297962766e+01,3.150574130704832435e-04,1.060876942747860880e+02,1.343213485983139421e-04
3.670000000000000000e+03,4.320029903959706274e+01,2.859846003364166240e-04,9.133680457199506009e+01,1.076310950937608957e-04
5.789000000000000000e+03,4.259395166586379133e+01,1.782965139913227450e-04,8.722833786298919279e+01,1.146946307947003786e-04
1.370000000000000000e+03,4.257166642180769855e+01,2.202575648482461271e-04,9.626970138068305971e+01,1.199278894178513994e-04
4.122000000000000000e+03,4.151800465117556627e+01,1.530440995389933338e-04,8.434176573543999211e+01,9.168041159831450304e-05
3.187000000000000000e+03,4.147195095972111289e+01,6.821113706682004540e-04,9.099422152940172737e+01,1.336451885682905382e-04
3.310000000000000000e+03,4.139364955660275314e+01,1.134906861848878267e-04,9.240891330401265691e+01,1.003630335939290855e-04
4.697000000000000000e+03,4.100780032441170420e+01,4.824715467432996101e-04,9.092909339881290975e+01,1.232957494666798970e-04
3.010000000000000000e+02,4.069675107617048582e+01,1.462824170590737384e-04,8.206549056576825762e+01,1.030492370809388063e-04
1.522000000000000000e+03,3.945953618158751652e+01,1.711284340381943479e-04,7.991407913690851217e+01,9.789986974981569905e-05
5.000000000000000000e+00,3.940256261578699792e+01,4.100800404821480739e-04,9.066541339719421444e+01,1.147885329291819850e-04
4.942000000000000000e+03,3.919984608173856344e+01,1.727285353897303559e-04,8.412416800944814099e+01,1.125884334785187457e-04
3.827000000000000000e+03,3.875204892549020741e+01,1.788374583714681101e-04,8.457311123450695334e+01,9.722410521909385732e-05
3.004000000000000000e+03,3.782995819491567602e+01,2.521963951768242023e-04,8.006556595068111903e+01,1.111959065563682857e-04
5.470000000000000000e+03,3.734111729857270490e+01,1.416570642312630789e-04,7.434121703816535387e+01,8.882201052208012594e-05
7.720000000000000000e+02,3.714801829523268850e+01,1.459524046913256720e-04,7.901831999777314763e+01,1.082961420447046605e-04
3.548000000000000000e+03,3.707816278806711097e+01,1.932662064596158585e-04,7.542271699410717645e+01,1.085290481775709589e-04
3.185000000000000000e+03,3.587592668788820305e+01,1.980134947995849611e-04,7.617863564054306380e+01,8.931265553320370289e-05
5.238000000000000000e+03,3.581475356794247489e+01,3.925814647035228826e-05,1.446213304307612759e+02,3.724022604523387087e-04
7.042000000000000000e+03,3.484627795943981710e+01,9.096445339647549330e-04,5.870074554094020414e+02,1.690283405582330414e-03
2.550000000000000000e+03,3.481417624893561680e+01,1.505087776449864532e-04,1.790639210339605540e+02,9.730575966200409599e-04
3.750000000000000000e+02,3.476589884795357932e+01,1.594429463797873985e-04,7.729084255204439557e+01,9.999971221587533555e-05
3.983000000000000000e+03,3.473876690436469516e+01,1.033481377231136025e-03,5.405159120636077432e+02,2.830781911523286634e-03
2.391000000000000000e+03,3.467604033276403896e+01,2.446827245077941716e-04,2.528517933088397740e+02,1.024610528857108948e-03
1.153000000000000000e+03,3.463691408849805953e+01,1.776886731058274879e-04,7.454086549683198371e+01,9.338928253159212590e-05
3.382000000000000000e+03,3.435110569790053603e+01,1.609732123813396117e-04,6.908907553744734287e+01,9.341681281966605400e-05
2.475000000000000000e+03,3.412162965185616770e+01,3.587026401131279988e-04,7.536684133846569011e+01,1.046287716822889667e-04
5.458000000000000000e+03,3.311128163292219284e+01,3.142944220606393234e-04,6.429781312736254506e+01,9.331494462293619529e-05
5.138000000000000000e+03,3.311046751990225800e+01,9.131239749149299052e-05,7.838559506196781967e+01,8.161759543379873091e-05
3.605000000000000000e+03,3.293124469336895288e+01,5.854982169772084957e-05,7.266930653178083332e+01,7.165998234172047288e-05
2.425000000000000000e+03,3.254222405425728937e+01,1.998538201803386021e-04,7.008853518077344802e+01,8.571385302113222943e-05
1.244000000000000000e+03,3.200318997591203640e+01,1.612269510482145917e-04,6.704708111417573946e+01,6.793559169621000580e-05
6.981000000000000000e+03,3.199839194508858853e+01,3.806082134477128997e-04,6.920564007185318189e+01,1.017307989728836928e-04
5.768000000000000000e+03,3.196538352465994848e+01,1.066434252293490761e-04,6.732893051508310123e+01,8.270990524130251498e-05
2.670000000000000000e+02,3.189455716069711499e+01,1.428304898997423140e-04,7.037145412171000203e+01,9.017690549052939804e-05
6.766000000000000000e+03,3.181206015852412960e+01,2.982623555404797459e-04,6.665747885086287283e+01,1.025184578500629130e-04
6.627000000000000000e+03,3.158028826471192474e+01,1.448604600104118345e-04,6.593779089597320819e+01,9.648509471702748359e-05
8.730000000000000000e+02,3.153435066304482959e+01,6.750193769647248800e-05,6.658892426838025358e+01,7.179549213277448675e-05
5.500000000000000000e+03,3.127577613559097003e+01,2.023803647232924174e-04,6.657169578600004911e+01,8.836382165942742125e-05
6.250000000000000000e+02,3.126115346459084421e+01,1.865149839325652356e-04,7.247695299412322356e+01,7.879321794742696785e-05
6.146000000000000000e+03,3.094193230246122539e+01,3.451584913103874792e-04,6.564717134520361697e+01,8.702067180986957913e-05
1.324000000000000000e+03,3.079681486219057973e+01,9.222651017248514362e-05,6.424776671278797835e+01,7.271832481529274942e-05
3.502000000000000000e+03,3.068028007643879462e+01,2.899491639377632787e-04,6.787667052746509455e+01,1.140447055277533201e-04
2.126000000000000000e+03,3.035881358493395865e+01,8.329003908709617723e-03,1.501389516554261263e+03,1.089480331287363997e-02
1.076000000000000000e+03,2.948368322833396249e+01,6.416244395749460747e-03,1.229325092830107906e+03,9.338616580778518264e-03
3.501000000000000000e+03,2.924125080896631346e+01,1.101111276806750368e-04,6.394224551400849776e+01,7.217615450609321699e-05
4.560000000000000000e+02,2.912266363801033009e+01,1.373872161321173754e-04,6.596759140856050863e+01,6.950970688921053885e-05
5.005000000000000000e+03,2.878948057171269781e+01,1.202158642572930783e-04,5.571910672642162154e+01,6.123650084951630108e-05
1.747000000000000000e+03,2.876985139204432329e+01,2.148825789970373065e-04,5.825879758245916662e+01,6.486717946749350654e-05
1.776000000000000000e+03,2.845095759700215865e+01,3.712212149280033212e-04,5.905698764646596999e+01,8.420246488990472075e-05
6.576000000000000000e+03,2.843376103778656372e+01,2.952976426342814845e-04,6.321798605133264459e+01,8.613073294855195280e-05
3.498000000000000000e+03,2.837035832730485652e+01,8.373747900857844012e-03,1.621650566221449935e+03,1.283423807370926914e-02
2.536000000000000000e+03,2.771530902300009558e+01,9.944009558451469223e-05,6.137447392252308020e+01,8.396979553327501981e-05
2.530000000000000000e+02,2.689503274239575603e+01,2.689970523336651111e-04,5.235969599324693746e+01,7.689259158018496663e-05
2.310000000000000000e+02,2.639155251083023757e+01,9.996866592088571074e-05,5.617761846967149353e+01,7.091108369917495011e-05
2.250000000000000000e+02,2.581426039387437399e+01,1.142544990117347461e-04,5.500871167835872910e+01,8.401589600812746285e-05
1.395000000000000000e+03,2.524162456314325809e+01,8.714454607428803333e-05,5.100422670565225047e+01,6.182837425331394563e-05
5.228000000000000000e+03,2.511671342438752674e+01,1.506154283059329502e-04,5.286980187587295177e+01,8.371454912540488827e-05
4.390000000000000000e+02,2.505964696758458032e+01,6.386640310100488813e-05,5.514950277214740737e+01,6.622753416644962666e-05
5.119000000000000000e+03,2.453427857155337222e+01,8.388505931264576506e-05,5.232515606864311764e+01,7.178111467862761973e-05
7.390000000000000000e+02,2.437265360194587416e+01,1.327913951757178559e-04,5.041813544021312055e+01,7.198611898232246012e-05
1.386000000000000000e+03,2.432730044261270663e+01,1.685306100192128379e-04,5.030620965246306753e+01,7.043582961694337934e-05
3.905000000000000000e+03,2.413337611880985989e+01,1.478530192091616141e-04,5.419247973004203089e+01,9.365641609606679442e-05
4.861000000000000000e+03,2.407083040431660592e+01,5.146616628843211216e-05,5.408689877065440044e+01,6.427514525277748818e-05
6.213000000000000000e+03,2.404376885364884942e+01,1.249383037229945920e-04,5.154511624253243696e+01,7.484839080840096628e-05
6.900000000000000000e+03,2.332781878700189893e+01,4.545939682123303812e-05,4.832219077899257087e+01,6.884094816400307979e-05
8.690000000000000000e+02,2.287384395442167673e+01,2.331270466514448591e-05,4.967761897236054836e+01,4.459529129998932056e-05
3.161000000000000000e+03,2.284255512076924077e+01,1.219269696715394725e-04,4.708054589962996772e+01,6.462451412184487900e-05
3.707000000000000000e+03,2.282963487203936381e+01,5.090372335410859803e-03,1.304833902223220321e+03,7.690187178474866200e-03
7.980000000000000000e+02,2.261216676209814125e+01,9.754652422276908260e-04,3.241494133803117279e+02,1.958781509492671293e-03
2.879000000000000000e+03,2.256112971809390189e+01,2.609599106184947869e-04,4.944929121289536766e+01,6.791000429496273343e-05
2.493000000000000000e+03,2.212060027837911491e+01,8.565056907210898346e-05,4.588752539548168841e+01,6.903741982204555938e-05
5.090000000000000000e+02,2.190480353341772712e+01,4.957206196410050277e-05,4.491959863397425323e+01,5.290965755787890618e-05
9.510000000000000000e+02,2.182729585079570711e+01,5.670460790024595409e-05,4.034404820334556518e+01,5.062497239409482558e-05
4.901000000000000000e+03,2.167865577523378207e+01,6.798417993415480694e-05,4.453575474261793943e+01,6.544585228034062940e-05
4.320000000000000000e+02,2.165652266390853242e+01,1.181105994143192791e-04,4.333161915664298647e+01,6.603756268231903771e-05
3.671000000000000000e+03,2.128313702066775193e+01,7.048518636944383069e-05,4.153683622385207741e+01,3.288800931370572525e-05
4.299000000000000000e+03,2.114241205916412625e+01,7.562491848683957003e-05,4.222372555497715751e+01,4.324951309300910542e-05
6.695000000000000000e+03,2.113802305168437456e+01,2.363094141635344720e-04,4.755682587687046947e+01,6.127521701501354270e-05
5.817000000000000000e+03,2.015693523407135146e+01,3.590925577822735859e-05,4.203434362527149659e+01,5.731371839048019889e-05
2.727000000000000000e+03,2.013579437182779586e+01,8.521159009529586368e-05,4.174319409343782894e+01,5.395962546437035591e-05
2.160000000000000000e+02,2.011438519363538191e+01,2.595934863034329336e-05,3.774672454351477313e+01,3.535743720666508448e-05
3.469000000000000000e+03,2.001084180327928053e+01,3.867107145104302975e-03,1.132894886893315970e+03,4.912808878019901855e-03
2.611000000000000000e+03,1.984780701473158970e+01,6.419634537943737750e-05,4.438836987040014748e+01,4.426667433167147457e-05
1.693000000000000000e+03,1.982664338886686650e+01,8.555597497127061810e-05,3.804175408316979912e+01,6.003588450380379444e-05
1.280000000000000000e+02,1.952904960325792061e+01,1.772047474300611546e-04,1.663862500979538197e+02,6.557690343955689151e-04
4.905000000000000000e+03,1.944250145444183175e+01,1.013146482552280069e-04,4.185832578916591018e+01,5.438752400872366645e-05
6.804000000000000000e+03,1.934013782341779830e+01,1.797939247206930191e-03,5.986263316610446736e+02,2.404888652718898453e-03
2.460000000000000000e+03,1.917460845525415181e+01,6.567314466419775509e-05,4.241935027895730315e+01,5.799965451838976144e-05
2.429000000000000000e+03,1.913188020516718879e+01,4.293803042886756762e-04,5.095295273756585743e+02,8.965950963671710013e-04
6.526000000000000000e+03,1.908597420798627198e+01,1.505662291725353948e-04,3.761395830340215696e+01,5.705469082860142264e-05
5.663000000000000000e+03,1.900589969876375562e+01,5.270813397846538408e-05,3.512500426569149425e+01,3.362842922096671562e-05
5.955000000000000000e+03,1.836528329786946045e+01,5.561175041994448652e-05,4.120517368017682713e+01,4.758795105869954422e-05
7.092000000000000000e+03,1.832608527830883105e+01,1.034091112390270759e-04,4.061686244863651751e+01,5.488789239427015209e-05
8.880000000000000000e+02,1.831032671758921282e+01,6.262774448060886982e-05,3.705795804835334906e+01,4.765503738039521026e-05
5.059000000000000000e+03,1.811837563876677137e+01,7.931158173925153794e-05,4.087773706878992641e+01,5.261367428153230103e-05
7.096000000000000000e+03,1.798642794267832201e+01,5.210587777277610362e-03,1.494483452310612847e+03,4.770415931243504257e-03
3.863000000000000000e+03,1.796679956262835276e+01,1.236451520409354455e-03,3.185774443723599916e+02,1.745277076071996515e-03
1.831000000000000000e+03,1.784882698041009519e+01,3.132165166427142101e-05,3.428848870034941854e+01,3.875112593617071433e-05
1.450000000000000000e+03,1.782831842966815472e+01,5.464313398633976923e-05,3.389764552948317800e+01,4.318891511601992238e-05
2.159000000000000000e+03,1.775879740832110443e+01,6.661748888407203160e-03,1.113214472616910825e+03,8.158282713418212734e-03
1.930000000000000000e+03,1.769432024703043993e+01,6.688513672125724803e-05,3.845042155781248994e+01,4.712629355409814642e-05
5.775000000000000000e+03,1.767415442679836346e+01,3.729032991309622189e-05,3.347033444504290145e+01,3.323988717316310378e-05
1.005000000000000000e+03,1.763131504567416385e+01,3.785726739529028835e-03,1.476390034619647622e+03,5.035304352543065048e-03
3.295000000000000000e+03,1.757202315694938122e+01,5.329158173675979920e-05,3.355984630951703451e+01,3.754766444148619072e-05
4.383000000000000000e+03,1.741760081644466496e+01,7.838029602149632882e-05,3.504383090311419124e+01,5.268025082543185983e-05
1.786000000000000000e+03,1.712984254047516686e+01,2.753862793564380591e-03,1.352866090860121176e+03,2.775120909357894818e-03
6.970000000000000000e+03,1.708473526076028648e+01,6.855392492948573645e-05,3.846089864853653495e+01,4.456085755615138205e-05
2.110000000000000000e+03,1.707841339782959267e+01,3.420086033139440110e-03,8.574685704891081741e+02,3.687728295419330417e-03
1.313000000000000000e+03,1.707584210959830884e+01,5.551310912912530077e-05,3.547743845043272870e+01,4.619625370658670728e-05
4.943000000000000000e+03,1.704756303611838675e+01,1.015126236782529223e-02,1.476752398845391326e+03,1.033023158372495427e-02
2.519000000000000000e+03,1.685523418359385062e+01,5.490780457428780356e-05,3.535640159960880169e+01,4.077972290841841977e-05
1.932000000000000000e+03,1.672848601019397918e+01,1.636824351174625452e-03,1.436832382278236764e+03,1.351277434219026741e-03
4.272000000000000000e+03,1.611932737854377251e+01,6.012622790778757219e-05,3.561159026985870213e+01,3.927922307194757267e-05
1.449000000000000000e+03,1.603131203867156174e+01,5.468173095531098224e-05,3.976784767160823719e+01,6.044212328410346124e-05
1.303000000000000000e+03,1.583346936173707498e+01,4.482036795084611003e-05,3.291740085867959209e+01,3.737479089565260386e-05
4.936000000000000000e+03,1.578192406747101728e+01,8.090690034863295618e-03,1.586735265125466412e+03,7.209265003138844510e-03
4.410000000000000000e+02,1.565308167229255254e+01,1.583728986166195105e-03,1.108600871842382048e+03,2.306256786519177496e-03
4.220000000000000000e+03,1.551553379578415992e+01,1.112979299123210194e-03,3.227934266438838904e+02,1.382956191353010983e-03
6.736000000000000000e+03,1.546923362559618020e+01,1.210235445828255406e-04,3.484984098017733345e+01,4.719080091690889861e-05
3.246000000000000000e+03,1.542161913160894215e+01,3.090656523818562150e-05,3.276700353410166144e+01,3.389497632256521765e-05
3.569000000000000000e+03,1.538361120612481869e+01,4.014219515308102174e-05,3.027625877203603721e+01,4.453388291639905847e-05
1.010000000000000000e+02,1.530638247738338187e+01,1.150259854620875878e-04,3.181251102906236028e+01,4.316188581082345074e-05
7.101000000000000000e+03,1.524922196266217966e+01,3.157498608536521043e-05,3.206763302071731658e+01,3.577225946205886224e-05
2.290000000000000000e+03,1.516984604041069495e+01,6.180404745642124561e-05,3.229019339455334858e+01,3.446885373994110403e-05
4.816000000000000000e+03,1.474356227089583626e+01,1.806224827179137433e-05,2.869216086214774464e+01,2.893145905400369372e-05
4.508000000000000000e+03,1.467028146662381261e+01,8.648247750751363819e-04,3.310118979477115317e+02,1.332186822269600243e-03
4.431000000000000000e+03,1.445001174783368292e+01,1.410601204523259577e-05,2.796796395209753072e+01,2.258425782387250399e-05
2.150000000000000000e+03,1.432157530989104899e+01,6.232622569053452471e-05,3.103195123550811374e+01,4.433883896758138919e-05
1.811000000000000000e+03,1.418642745612803324e+01,8.510147601776898193e-05,2.856643214855749946e+01,3.382599304477219501e-05
1.951000000000000000e+03,1.416569737000384421e+01,5.098277529156311667e-03,1.076893561793389154e+03,6.248980702210751685e-03
1.642000000000000000e+03,1.415620666271103012e+01,4.392576735997200284e-05,2.897659351628259827e+01,3.498921556198705634e-05
1.342000000000000000e+03,1.409275769898337671e+01,4.441387557718291752e-05,2.886571116929416547e+01,3.755809749433563176e-05
4.596000000000000000e+03,1.404924317649211041e+01,9.697519147571677790e-05,3.086951486785563858e+01,4.748188281358958025e-05
6.779000000000000000e+03,1.404467608761883390e+01,2.617549550461926509e-05,2.790030371119262398e+01,3.474188674752620872e-05
1.443000000000000000e+03,1.402665569393116485e+01,2.442939736957902699e-05,2.913752194992240874e+01,2.789238191639008071e-05
9.540000000000000000e+02,1.388980681657028171e+01,4.348463091289486715e-03,1.494053852839348110e+03,4.231114833335450354e-03
5.043000000000000000e+03,1.368402105134151903e+01,3.673447991889745997e-05,2.857508988389473004e+01,3.408799997390724788e-05
4.128000000000000000e+03,1.331694990088378816e+01,2.942594067774770885e-05,2.773714026214861050e+01,3.603995570498827054e-05
3.012000000000000000e+03,1.328419741314347391e+01,3.141336599460708366e-05,2.403905416672503037e+01,2.911989535351866204e-05
6.676000000000000000e+03,1.303776723204141952e+01,2.191805823821178713e-04,2.794906087192640953e+01,4.163575979378636899e-05
6.397000000000000000e+03,1.294199530603918191e+01,2.630189228049862761e-05,2.821501166710222464e+01,3.287023745915072657e-05
2.047000000000000000e+03,1.284459468864327647e+01,6.998535598648799704e-05,2.874094479429108873e+01,3.271065687446731243e-05
1.594000000000000000e+03,1.278114800908385007e+01,5.139337719300921675e-03,1.289831744735680331e+03,6.468748085416682267e-03
2.626000000000000000e+03,1.264864277402625348e+01,6.073640547738882838e-03,1.445287661287409492e+03,6.787970902812148766e-03
2.279000000000000000e+03,1.259711765701101349e+01,6.572869108867655189e-05,2.730321932979310517e+01,4.251343053150352566e-05
5.431000000000000000e+03,1.252846498526056784e+01,6.802643717099181937e-05,2.641491190099903719e+01,3.367193093911839230e-05
5.459000000000000000e+03,1.239294791174076060e+01,3.097315435992348785e-03,8.466061987032932166e+02,3.308732110652893091e-03
1.013000000000000000e+03,1.236201235079330907e+01,2.977224328602969767e-05,2.526576506550620138e+01,3.298927275201002260e-05
2.722000000000000000e+03,1.231932376614109970e+01,3.191078854325399972e-05,2.468467823605969969e+01,3.052926098328782233e-05
6.551000000000000000e+03,1.203573309295031990e+01,2.209650578156080371e-03,7.033540754580568546e+02,3.152230715488744863e-03
6.725000000000000000e+03,1.180954607021308966e+01,8.351268801640567094e-05,2.627207934779742615e+01,5.035277723806819199e-05
7.950000000000000000e+02,1.173014727928053169e+01,3.129708121156326027e-05,2.378189925476128153e+01,4.228323203114999190e-05
7.250000000000000000e+02,1.167372938322303355e+01,7.560320624268771048e-05,2.580106943213466764e+01,3.793971140240626661e-05
1.986000000000000000e+03,1.162840523742573673e+01,6.806942785292050696e-06,2.270336582841035522e+01,2.900877610383675951e-05
6.690000000000000000e+03,1.157743529955180684e+01,2.643032288288601236e-05,2.132726330885512311e+01,2.448808684527399720e-05
6.423000000000000000e+03,1.153559765789117897e+01,1.749636123719159101e-05,2.117547525667853137e+01,2.210061803675702764e-05
5.420000000000000000e+02,1.146783010842898065e+01,3.822798773205103514e-05,2.321814236265272768e+01,2.360676352657649477e-05
2.400000000000000000e+03,1.135531461173733625e+01,2.686305186817089803e-05,2.318543877291038413e+01,4.234441159783806062e-05
3.212000000000000000e+03,1.128019866259041493e+01,6.955915863448487745e-05,2.091139883787344544e+01,2.419821582051758630e-05
3.437000000000000000e+03,1.120766955216244298e+01,2.511746360365188675e-03,8.774418803728585772e+02,3.278273716949659314e-03
3.657000000000000000e+03,1.115083555326429909e+01,1.137970167341617366e-05,2.335175928598315664e+01,2.602020649548253929e-05
3.629000000000000000e+03,1.108226335812583585e+01,1.247123086302723207e-04,1.649576750402000869e+02,3.309142467147007760e-04
3.126000000000000000e+03,1.074098352933694933e+01,3.029231577036359979e-05,2.334018955842481446e+01,2.301081555694292733e-05
3.635000000000000000e+03,1.071874877298153272e+01,1.819928998436693600e-05,2.203761623291252647e+01,2.386462042610376275e-05
4.220000000000000000e+02,1.063882439941180102e+01,2.807768708922868511e-05,2.074357242248342104e+01,2.149690152176815202e-05
7.028000000000000000e+03,1.041792951158793201e+01,2.840497375158893955e-03,6.195647387443624439e+02,3.449382470229882345e-03
9.640000000000000000e+02,1.029656634771652790e+01,2.495633700287972376e-05,2.163029233680989094e+01,2.428794581864875606e-05
1.589000000000000000e+03,9.613060914596289308e+00,1.739687173711249244e-05,1.994142719275260944e+01,2.586373551761873745e-05
1.853000000000000000e+03,9.546926565039964174e+00,2.870278271593934509e-05,1.998410974912297178e+01,2.377092692387594987e-05
2.426000000000000000e+03,9.532003471748396350e+00,2.447877478403703150e-03,1.418522463432219411e+03,2.787120152808309111e-03
3.584000000000000000e+03,9.448161676974377698e+00,1.038629940309920103e-03,3.180971292798760715e+02,1.335485155349546132e-03
2.080000000000000000e+02,9.357263179613193316e+00,9.067728924480928277e-06,1.731269012906700056e+01,1.993926450983810834e-05
2.224000000000000000e+03,9.324333759132263921e+00,2.548589212590574284e-05,1.815088856845854792e+01,2.249151474695577552e-05
1.052000000000000000e+03,9.287260894609804751e+00,4.480744617564554256e-05,2.142372024508260253e+01,2.892605319122035652e-05
1.614000000000000000e+03,9.045010470113737711e+00,1.374948426290980837e-05,1.836079630958731812e+01,2.174415891192639383e-05
1.042000000000000000e+03,8.962419423752111314e+00,3.551071753408597111e-05,1.830552303727414909e+01,2.489853977926876537e-05
4.860000000000000000e+02,8.533236796286468362e+00,9.458017282830684071e-06,1.888955160871284988e+01,1.645118310870620891e-05
5.564000000000000000e+03,8.516162205449333555e+00,5.354754005917576604e-05,1.892866012606062753e+01,3.442811433961052986e-05
3.576000000000000000e+03,8.500511047374169848e+00,6.423524131633240104e-06,1.634632897363608350e+01,2.002470659988985619e-05
4.349000000000000000e+03,8.409917250735119865e+00,1.642245514807094179e-05,1.623975560156084796e+01,1.850463577019994190e-05
4.320000000000000000e+03,8.306999845681733774e+00,1.216159154970677901e-05,1.686972390405153988e+01,1.417652177685944021e-05
2.649000000000000000e+03,8.202995060400741778e+00,3.980166043512855606e-05,1.756782768813565809e+01,2.583327592366122999e-05
3.101000000000000000e+03,7.800011038858600365e+00,1.455376809018258851e-05,1.727056076800401030e+01,2.099815184098054204e-05
7.118000000000000000e+03,7.681625351661923951e+00,2.307820463748026869e-05,1.562120816783194677e+01,1.681146721242685036e-05
7.093000000000000000e+03,7.656907415969676833e+00,5.541204574748742671e-06,1.646215382939141847e+01,1.924167100462628366e-05
1.192000000000000000e+03,7.204798779463622793e+00,1.273439494602568228e-03,2.647312333122008567e+02,1.188076441974182662e-03
6.481000000000000000e+03,7.204535267857318459e+00,2.796311105320860649e-03,8.798280591700981859e+02,2.783385195366320109e-03
2.455000000000000000e+03,7.077827772386304339e+00,2.966453741815775174e-05,1.506263218452239272e+01,1.942156731383738272e-05
2.506000000000000000e+03,7.050888752724277175e+00,1.492651090121522831e-05,1.465560004867482924e+01,1.629583050977153217e-05
3.055000000000000000e+03,6.832651640605465815e+00,2.118686643685977928e-05,1.523643833496197786e+01,1.802202064592188676e-05
6.545000000000000000e+03,6.829250307194056901e+00,3.938422126819812914e-03,6.453837244512404823e+02,5.400813239779713414e-03
1.662000000000000000e+03,6.701355821561529424e+00,2.872523779496245680e-06,1.261045009557005869e+01,1.215844692117450296e-05
6.631000000000000000e+03,6.549109922537326156e+00,7.374144295910887059e-06,1.235194606495687886e+01,1.407105142350716555e-05
1.092000000000000000e+03,6.500764238561716368e+00,1.422490615275308284e-05,1.377896218355215119e+01,1.800078611101156603e-05
6.245000000000000000e+03,6.441406087278721770e+00,1.988504813229319187e-05,1.382773832556994265e+01,1.732349561756753146e-05
2.853000000000000000e+03,6.427523669573552922e+00,2.827382657699523754e-06,1.134393013803553352e+01,1.153033407034219505e-05
7.143000000000000000e+03,6.248050232683678651e+00,6.762114595346869864e-06,1.224310701689111447e+01,1.516769925817033252e-05
1.258000000000000000e+03,6.224374418267247577e+00,9.255363966766072537e-03,1.085248239154150724e+03,9.500074454892393563e-03
4.454000000000000000e+03,6.166935603852838454e+00,1.300742588837818757e-05,1.134064737952547119e+01,1.575933568213317527e-05
9.820000000000000000e+02,5.801243546944562901e+00,4.494932287886729849e-06,1.154813927834121401e+01,1.298001804066501026e-05
6.991000000000000000e+03,5.650721756105713922e+00,3.623851636082030698e-05,1.130734310284292654e+01,1.404587639095197839e-05
3.508000000000000000e+03,5.267930331339925942e+00,2.196828090654254768e-05,1.191783679870376744e+01,1.727345192983687817e-05
6.493000000000000000e+03,5.208007939709820455e+00,9.636682945653895737e-06,1.101255166336737368e+01,1.340966838193572840e-05
9.000000000000000000e+00,5.178063021533415800e+00,4.932101118407917302e-06,1.057471510799913617e+01,1.024662441333066029e-05
2.402000000000000000e+03,5.153953012355324326e+00,2.117348421472512831e-05,1.087928832875009810e+01,1.301785120257381837e-05
6.774000000000000000e+03,5.039249228254510271e+00,1.394603611957833146e-05,1.073864314613577697e+01,1.325508910254696984e-05
2.081000000000000000e+03,4.818831641332724125e+00,7.439314023417703939e-06,9.405533370533181170e+00,1.110997678689863229e-05
7.004000000000000000e+03,4.667620392858013112e+00,1.359985065817581986e-05,9.760533550285833471e+00,1.034373206358987344e-05
5.293000000000000000e+03,4.641584519584578850e+00,1.465206780642378517e-05,9.787584517618796554e+00,1.284763024404287135e-05
4.380000000000000000e+02,4.636201922974057865e+00,3.437649215859302741e-03,7.859716182710267276e+02,3.614327871374836080e-03
3.319000000000000000e+03,4.572578615807285196e+00,5.256466000782549918e-06,9.392606548130912003e+00,1.177033954979483368e-05
1.019000000000000000e+03,4.469054955297105280e+00,5.315006331646421800e-06,8.502782738740787494e+00,8.326474996754217788e-06
6.905000000000000000e+03,4.416042002376372899e+00,4.923994894288812083e-06,7.921783596418301876e+00,9.809546101657821987e-06
1.467000000000000000e+03,4.188587961992252140e+00,3.331036549340407589e-06,8.206761982632921004e+00,1.025640776292342744e-05
4.048000000000000000e+03,3.939205785063432330e+00,1.960893511147684862e-06,7.703546966134785734e+00,6.871665430985039981e-06
2.686000000000000000e+03,3.770343933917819079e+00,3.638480187728099142e-06,7.621941753511894291e+00,7.828879246676632802e-06
5.268000000000000000e+03,3.718878157980745058e+00,7.086822535426712082e-06,7.232156771048835253e+00,7.291320674660824825e-06
3.760000000000000000e+03,3.699183956879612989e+00,1.027769100904132353e-06,6.880422828588089068e+00,5.603720156736958558e-06
7.122000000000000000e+03,3.638142052897589629e+00,4.630951688403583547e-06,7.423294675547212229e+00,9.041437153725315098e-06
6.677000000000000000e+03,3.502916351776158344e+00,6.162583596733279260e-06,6.706301385317857466e+00,6.284067943728002767e-06
1.268000000000000000e+03,3.471853040273506608e+00,2.269678448150540427e-06,6.668362184703679141e+00,8.144329139192995641e-06
5.587000000000000000e+03,3.424324185982415614e+00,7.273937160843244221e-06,7.018722715261832334e+00,8.658448146030522756e-06
7.330000000000000000e+02,3.411084895173864595e+00,5.332762115127077711e-06,6.941225307442446812e+00,6.553055587919316122e-06
9.000000000000000000e+01,3.361888595108665889e+00,1.437434142646901304e-05,6.485072914783700959e+00,8.425568250034398939e-06
6.057000000000000000e+03,3.154111403724316531e+00,2.266722832248168862e-06,5.802971438166060203e+00,6.678707714710095599e-06
1.941000000000000000e+03,3.038682567442196891e+00,6.071266260701575163e-06,6.113633850895198840e+00,7.649647295876728790e-06
5.200000000000000000e+02,3.014957313915750170e+00,4.006833775803461284e-06,6.622467460044947352e+00,9.381423883999061812e-06
6.868000000000000000e+03,3.012695267910004304e+00,4.071320341519583010e-06,5.955177634370049766e+00,7.941715884525840744e-06
2.856000000000000000e+03,2.956278966527497332e+00,2.814597823584413187e-03,3.841138154580683022e+02,3.100079562589499668e-03
6.713000000000000000e+03,2.900393475473558969e+00,1.734475890124803521e-05,6.467908651922408936e+00,9.758145560629676564e-06
1.370000000000000000e+02,2.756282493262663724e+00,1.377623123941237487e-06,5.570485207707977615e+00,7.230280003226628357e-06
3.223000000000000000e+03,2.696776688662218202e+00,1.009134486495692653e-05,5.653372356606060301e+00,6.266420649843482706e-06
1.844000000000000000e+03,2.647029346955150242e+00,1.968709031053565235e-06,5.944063002349357916e+00,6.648672388173771957e-06
2.291000000000000000e+03,2.566458713582371320e+00,1.262833890180772410e-06,5.136299533735578571e+00,4.519669824146720422e-06
3.306000000000000000e+03,2.566349055677420665e+00,3.866287124639454848e-06,5.442330117687819602e+00,6.610272617380590678e-06
4.594000000000000000e+03,2.493297925592559139e+00,1.460517966602723643e-06,4.338197318298091965e+00,5.847265865972341370e-06
1.302000000000000000e+03,2.453753712005374954e+00,3.232405076242749852e-06,4.584345815563753312e+00,4.128167608477214073e-06
6.100000000000000000e+03,2.355330315371867211e+00,4.758289251213752056e-06,4.485122089683461155e+00,7.328991675958027323e-06
5.392000000000000000e+03,2.292620770675595221e+00,1.712166502002180397e-06,4.072938883558530065e+00,5.734580873143310014e-06
6.110000000000000000e+02,2.291995182864695391e+00,1.916116120770126365e-03,9.380153579909929249e+02,1.972712352082043371e-03
3.836000000000000000e+03,2.283826565672375075e+00,2.974862038208213224e-06,4.905619831719534751e+00,4.668079469768578421e-06
6.700000000000000000e+03,2.060711173427225429e+00,1.685055715806700019e-05,4.100961071518804069e+00,6.105979616067974635e-06
2.375000000000000000e+03,2.010908243437490306e+00,2.591369462441118510e-06,4.710027814892944420e+00,5.898931842812101798e-06
6.590000000000000000e+03,1.999698678785379435e+00,2.074468876155112027e-06,4.497352758105631843e+00,5.083915466906463878e-06
2.461000000000000000e+03,1.948865948651315128e+00,6.226724005567057612e-07,4.229814157931907737e+00,3.063323570365301716e-06
2.509000000000000000e+03,1.941250870123278904e+00,2.643728760936175461e-06,3.848942599609758375e+00,4.149610540988825156e-06
4.207000000000000000e+03,1.846033122795755377e+00,1.163132342210568046e-05,3.837787474553123523e+00,7.665195553138174966e-06
1.550000000000000000e+03,1.763095875028821258e+00,1.070466361677057798e-06,3.774017419582765154e+00,5.166014897635977222e-06
2.330000000000000000e+03,1.727454653910085236e+00,4.099075697972900028e-06,3.383722873534678044e+00,4.601112498877184885e-06
3.592000000000000000e+03,1.665513322576558153e+00,1.874900873404854780e-06,3.436972584926363261e+00,4.488640735608895309e-06
3.634000000000000000e+03,1.634290739377864288e+00,1.104833205995599536e-05,3.506222372782469954e+00,5.149624798550625797e-06
4.897000000000000000e+03,1.602799061079790643e+00,1.113207418475518584e-06,3.132655202866414967e+00,4.095864942880036869e-06
1.511000000000000000e+03,1.580081888706752258e+00,1.430942611609367469e-03,5.047105333249610908e+02,1.445885334551082852e-03
6.984000000000000000e+03,1.574616469421401765e+00,3.706805109073080338e-06,3.076395495210393349e+00,4.415892915323649771e-06
2.102000000000000000e+03,1.573533191967374956e+00,1.879484034038683850e-06,3.339653120283251120e+00,4.360297470634700345e-06
6.938000000000000000e+03,1.565724613277588606e+00,1.261052443008183027e-06,3.102297709327278330e+00,2.831116010803905141e-06
6.860000000000000000e+03,1.524732235103521960e+00,1.401893368483462089e-05,2.990259969550991048e+00,4.014264693728923922e-06
2.918000000000000000e+03,1.455729798965235133e+00,2.603744464386771854e-06,2.745718484809678284e+00,3.071405189329843964e-06
1.087000000000000000e+03,1.417526730689420811e+00,9.752852939370760620e-07,2.844056547364845144e+00,2.231159208425319556e-06
5.410000000000000000e+03,1.335130368293937941e+00,2.113300427896703930e-06,2.771434838986942317e+00,2.930011219436057264e-06
4.587000000000000000e+03,1.282132391332223786e+00,9.283314494044430028e-07,2.848332561747663583e+00,3.713421485347680981e-06
1.869000000000000000e+03,1.263503539634872830e+00,1.895760494854175733e-06,2.249625149559839610e+00,2.097735484406176669e-06
4.030000000000000000e+03,1.234145398840205576e+00,1.627604297460021171e-05,2.983939216442729858e+00,5.482610924793333660e-06
5.366000000000000000e+03,1.162559671365591463e+00,2.222430911310708307e-06,2.110906110136724578e+00,2.592513298112693410e-06
1.981000000000000000e+03,1.089374914296890484e+00,2.437250627996818007e-07,2.219748435710966028e+00,2.065241176441207617e-06
6.687000000000000000e+03,1.087718922556930368e+00,1.421768923925121672e-06,2.197307581997043791e+00,2.654376202091135891e-06
5.524000000000000000e+03,1.065023139361873428e+00,3.281682290951681099e-06,2.123881862696903156e+00,3.432960988690428349e-06
1.376000000000000000e+03,1.049223939855585153e+00,4.962852640558607953e-07,1.769974163762319419e+00,1.779298364559229415e-06
1.029000000000000000e+03,9.693581422077172105e-01,1.254250918319060416e-06,2.053174161189986524e+00,2.519909365399493974e-06
1.020000000000000000e+02,9.577752969878835509e-01,6.781864844028555575e-07,1.712564557816712796e+00,1.633455771350316815e-06
6.699000000000000000e+03,9.428435256569475120e-01,2.426983122137230760e-07,1.671037479174779738e+00,1.564659262916497119e-06
4.762000000000000000e+03,9.222987929119906836e-01,7.536672817971628267e-05,5.675174743755709983e+01,7.678112989744950885e-05
6.869000000000000000e+03,9.153969099238420393e-01,9.509482621133352554e-07,1.907046271493836986e+00,2.199301537159223795e-06
7.760000000000000000e+02,9.031123124017694792e-01,2.821811904623835648e-07,1.658986903243935940e+00,1.477866915911431609e-06
3.852000000000000000e+03,7.839445130513336135e-01,6.033178099260228178e-07,1.581593853294556817e+00,1.730940329886383652e-06
3.844000000000000000e+03,7.702062276199508339e-01,9.805093408966012868e-07,1.567442912272583699e+00,2.073324242758278898e-06
1.828000000000000000e+03,7.418985053383715389e-01,1.028101498480530561e-06,1.655563897295658560e+00,2.580939261325158737e-06
6.648000000000000000e+03,7.124635410539210678e-01,8.829952138034879942e-07,1.471476816453310965e+00,1.605097570942781518e-06
4.704000000000000000e+03,6.975964115355305362e-01,2.683352958922535069e-07,1.303632668110781268e+00,1.025667528492969713e-06
6.321000000000000000e+03,6.686865910461529117e-01,1.089136178230706393e-06,1.418488296957297834e+00,1.751757809308966971e-06
1.371000000000000000e+03,6.106647225578938354e-01,2.143176195031426477e-07,1.286379451544027219e+00,1.567542359213361724e-06
2.559000000000000000e+03,6.081309558921070835e-01,4.230103206704656175e-07,1.135869496490977015e+00,9.845012767573811051e-07
2.451000000000000000e+03,4.955212306519430898e-01,2.908380336162915778e-07,1.146160706231220683e+00,1.390966293732547253e-06
2.474000000000000000e+03,4.939003606537695212e-01,4.798262201335917885e-07,8.846776143041603646e-01,8.131359032528090550e-07
2.104000000000000000e+03,4.558891564289655474e-01,1.099930759296845585e-06,8.676383427550621308e-01,8.876518207193439170e-07
5.874000000000000000e+03,3.530034845122242970e-01,5.023652030304198457e-07,6.503004402627083902e-01,5.611775068018875260e-07
4.000000000000000000e+00,3.444922340707118891e-01,2.172334906257837338e-07,5.928096943271359276e-01,6.860168125934632539e-06
5.140000000000000000e+03,3.421991464208182232e-01,1.067504059100762355e-06,6.297491046936604109e-01,1.082294843780890674e-05
6.932000000000000000e+03,2.875250777310757178e-01,1.294103900291476518e-07,5.727728535349980721e-01,7.329045565759843245e-07
8.600000000000000000e+02,2.644845407029871032e-01,1.035578587053815969e-07,4.873384012794521603e-01,1.052849598444924924e-05
2.695000000000000000e+03,2.552826477891036450e-01,1.144343471526562141e-07,4.791017268216259950e-01,1.022530133260678340e-05
2.937000000000000000e+03,2.452072115002915942e-01,1.595697915714161041e-07,4.495387999275191060e-01,1.012028926465709632e-05
3.792000000000000000e+03,2.321511029062237053e-01,1.056531005086253250e-06,4.483122109980045011e-01,6.415747924119493512e-07
2.807000000000000000e+03,2.306704423549940930e-01,1.347123274088608842e-05,4.617568804777407721e-01,3.990288436743646776e-07
9.390000000000000000e+02,2.153307725267286088e-01,3.572794074357511763e-07,4.481119037659311299e-01,5.580738341853871944e-07
1.519000000000000000e+03,1.934963983556702571e-01,9.693122708539315401e-06,1.934287654756267905e-01,1.191090864797918818e-05
2.776000000000000000e+03,1.835169886724850874e-01,4.913891744514200447e-07,4.083188441784411649e-01,1.216750330557184168e-05
5.200000000000000000e+03,1.767418340253071596e-01,2.627640174049689056e-07,3.819883827381706509e-01,7.576722750576161515e-06
6.660000000000000000e+02,1.747467915739402688e-01,1.322940179168424524e-05,4.045916365694014472e-01,5.061161855606017283e-07
2.757000000000000000e+03,1.715781898100870173e-01,3.044129649744764286e-07,4.016097095624395208e-01,1.000614219216215552e-05
4.230000000000000000e+03,1.483687276344758388e-01,7.322381833531620786e-06,2.505139394995533619e-01,3.532165570638126962e-07
1.624000000000000000e+03,1.453617549572649159e-01,3.634569765941763036e-08,1.453518136740374889e-01,6.695465410337026137e-06
5.931000000000000000e+03,1.348831587769270535e-01,4.328616284862192148e-08,1.351176942999373076e-01,5.776178178886819037e-06
6.911000000000000000e+03,1.204176887009330010e-01,1.068699665709958674e-07,1.205759328385942186e-01,5.527805692601693813e-06
6.885000000000000000e+03,1.176023370903668680e-01,6.453585186116307551e-06,1.899272653147370260e-01,1.363241010245884593e-07
5.703000000000000000e+03,1.041414971461093325e-01,4.848592732734634156e-06,1.038766961118149507e-01,4.848498730513027194e-06
1.309000000000000000e+03,9.772819836630955437e-02,3.543121460058987303e-06,9.684651752318526596e-02,3.542973511249562533e-06
1.217000000000000000e+03,9.535985881909969653e-02,3.367837151246782575e-06,9.382935949282611432e-02,4.377900221879226871e-06
5.230000000000000000e+03,8.811161980251448755e-02,6.602331673240425532e-06,1.527693469482770683e-01,1.350796694434059517e-07
6.700000000000000000e+02,3.398723299744517423e-02,2.079277413334221990e-08,1.187896869643512571e-01,4.934910270885399466e-06
6.734000000000000000e+03,2.868660007165805062e-02,9.986658859241342836e-09,5.655760868743329312e-02,3.077527009549304472e-06
2.197000000000000000e+03,2.372624536701993178e-02,2.686512600002557137e-04,2.222450586488621411e+02,2.688131810211236172e-04
3.154000000000000000e+03,2.137022720680735455e-02,1.282682234020588564e-06,4.527256617565728752e-02,3.000841694730080541e-06
4.123000000000000000e+03,1.828769554541884862e-02,1.848872267843872366e-08,5.577967027730921373e-02,3.512311716336133975e-06
1.718000000000000000e+03,1.251183444046249926e-02,6.561246770117257552e-09,3.668019933809309185e-02,1.937109572876130695e-06
6.610000000000000000e+03,9.458715683435300892e-03,5.354975149783530302e-09,2.911065662458925049e-02,1.657476766884563929e-06
5.511000000000000000e+03,8.587318613273716567e-03,6.805679703826520476e-09,3.493460834917289787e-02,2.025325981962383188e-06
5.289000000000000000e+03,8.166236656734349522e-03,1.457102464532448632e-08,4.585807925980789346e-02,3.371456541073645321e-06
4.650000000000000000e+02,4.992497039434408684e-04,6.126975985432739613e-10,5.041356459004168750e-04,7.360049137068587434e-10
5.909000000000000000e+03,4.498439853521066668e-05,3.097359891991567884e-09,3.541858666802786214e-04,7.844947455893772395e-10
