1.050000000000000000e+02,1.000000000000000000e+00,0.000000000000000000e+00,1.154000000000000000e+03,1.000000000000000000e+00,0.000000000000000000e+00,1.310000000000000000e+02,1.000000000000000000e+00,0.000000000000000000e+00,2.600000000000000000e+01,1.000000000000000000e+00,0.000000000000000000e+00,2.607000000000000000e+03,1.000000000000000000e+00,0.000000000000000000e+00,3.070000000000000000e+02,1.000000000000000000e+00,0.000000000000000000e+00,5.590000000000000000e+02,0.000000000000000000e+00,1.000000000000000000e+00,6.687000000000000000e+03,1.000000000000000000e+00,0.000000000000000000e+00,6.955000000000000000e+03,1.000000000000000000e+00,0.000000000000000000e+00,7.100000000000000000e+01,1.000000000000000000e+00,0.000000000000000000e+00
7.480000000000000000e+02,0.000000000000000000e+00,1.000000000000000000e+00,7.610000000000000000e+02,1.000000000000000000e+00,0.000000000000000000e+00,1.245000000000000000e+03,0.000000000000000000e+00,1.000000000000000000e+00,1.567000000000000000e+03,0.000000000000000000e+00,1.000000000000000000e+00,1.723000000000000000e+03,1.000000000000000000e+00,0.000000000000000000e+00,1.893000000000000000e+03,0.000000000000000000e+00,1.000000000000000000e+00,2.720000000000000000e+02,1.000000000000000000e+00,0.000000000000000000e+00,2.845000000000000000e+03,0.000000000000000000e+00,1.000000000000000000e+00,3.310000000000000000e+03,0.000000000000000000e+00,1.000000000000000000e+00,4.540000000000000000e+02,1.000000000000000000e+00,0.000000000000000000e+00
4.900000000000000000e+01,1.000000000000000000e+00,0.000000000000000000e+00,5.076000000000000000e+03,0.000000000000000000e+00,1.000000000000000000e+00,5.591000000000000000e+03,0.000000000000000000e+00,1.000000000000000000e+00,6.438000000000000000e+03,0.000000000000000000e+00,1.000000000000000000e+00,1.317000000000000000e+03,1.000000000000000000e+00,0.000000000000000000e+00,1.651000000000000000e+03,0.000000000000000000e+00,1.000000000000000000e+00,2.181000000000000000e+03,1.000000000000000000e+00,0.000000000000000000e+00,2.600000000000000000e+02,1.000000000000000000e+00,0.000000000000000000e+00,4.190000000000000000e+02,0.000000000000000000e+00,1.000000000000000000e+00,4.350000000000000000e+02,0.000000000000000000e+00,1.000000000000000000e+00
5.310000000000000000e+02,0.000000000000000000e+00,1.000000000000000000e+00,5.365000000000000000e+03,1.000000000000000000e+00,0.000000000000000000e+00,5.616000000000000000e+03,1.000000000000000000e+00,0.000000000000000000e+00,5.955000000000000000e+03,0.000000000000000000e+00,1.000000000000000000e+00,6.519000000000000000e+03,0.000000000000000000e+00,1.000000000000000000e+00,9.720000000000000000e+02,0.000000000000000000e+00,1.000000000000000000e+00,1.068000000000000000e+03,1.000000000000000000e+00,0.000000000000000000e+00,2.024000000000000000e+03,0.000000000000000000e+00,1.000000000000000000e+00,2.600000000000000000e+01,1.000000000000000000e+00,0.000000000000000000e+00,2.785000000000000000e+03,0.000000000000000000e+00,1.000000000000000000e+00
3.220000000000000000e+02,1.000000000000000000e+00,0.000000000000000000e+00,3.739000000000000000e+03,1.000000000000000000e+00,0.000000000000000000e+00,4.117000000000000000e+03,1.000000000000000000e+00,0.000000000000000000e+00,4.390000000000000000e+02,0.000000000000000000e+00,1.000000000000000000e+00,5.920000000000000000e+02,1.000000000000000000e+00,0.000000000000000000e+00,6.438000000000000000e+03,0.000000000000000000e+00,1.000000000000000000e+00,7.800000000000000000e+02,0.000000000000000000e+00,1.000000000000000000e+00,9.140000000000000000e+02,0.000000000000000000e+00,1.000000000000000000e+00,1.220000000000000000e+02,1.000000000000000000e+00,0.000000000000000000e+00,1.270000000000000000e+02,0.000000000000000000e+00,1.000000000000000000e+00
1.300000000000000000e+02,0.000000000000000000e+00,1.000000000000000000e+00,1.466000000000000000e+03,0.000000000000000000e+00,1.000000000000000000e+00,1.727000000000000000e+03,1.000000000000000000e+00,0.000000000000000000e+00,1.776000000000000000e+03,0.000000000000000000e+00,1.000000000000000000e+00,2.479000000000000000e+03,0.000000000000000000e+00,1.000000000000000000e+00,4.340000000000000000e+02,1.000000000000000000e+00,0.000000000000000000e+00,6.955000000000000000e+03,1.000000000000000000e+00,0.000000000000000000e+00,6.991000000000000000e+03,1.000000000000000000e+00,0.000000000000000000e+00,7.610000000000000000e+02,0.000000000000000000e+00,1.000000000000000000e+00,9.270000000000000000e+02,1.000000000000000000e+00,0.000000000000000000e+00
1.065000000000000000e+03,0.000000000000000000e+00,1.000000000000000000e+00,2.500000000000000000e+02,0.000000000000000000e+00,1.000000000000000000e+00,3.290000000000000000e+02,1.000000000000000000e+00,0.000000000000000000e+00,3.650000000000000000e+02,1.000000000000000000e+00,0.000000000000000000e+00,3.863000000000000000e+03,1.000000000000000000e+00,0.000000000000000000e+00,4.251000000000000000e+03,1.000000000000000000e+00,0.000000000000000000e+00,4.966000000000000000e+03,1.000000000000000000e+00,0.000000000000000000e+00,5.076000000000000000e+03,0.000000000000000000e+00,1.000000000000000000e+00,5.935000000000000000e+03,1.000000000000000000e+00,0.000000000000000000e+00,6.285000000000000000e+03,0.000000000000000000e+00,1.000000000000000000e+00
6.930000000000000000e+02,0.000000000000000000e+00,1.000000000000000000e+00,7.710000000000000000e+02,0.000000000000000000e+00,1.000000000000000000e+00,1.210000000000000000e+02,0.000000000000000000e+00,1.000000000000000000e+00,1.240000000000000000e+03,0.000000000000000000e+00,1.000000000000000000e+00,1.680000000000000000e+02,1.000000000000000000e+00,0.000000000000000000e+00,3.050000000000000000e+03,0.000000000000000000e+00,1.000000000000000000e+00,3.870000000000000000e+02,1.000000000000000000e+00,0.000000000000000000e+00,4.503000000000000000e+03,1.000000000000000000e+00,0.000000000000000000e+00,4.503000000000000000e+03,0.000000000000000000e+00,1.000000000000000000e+00,4.760000000000000000e+02,0.000000000000000000e+00,1.000000000000000000e+00
5.930000000000000000e+02,0.000000000000000000e+00,1.000000000000000000e+00,6.631000000000000000e+03,0.000000000000000000e+00,1.000000000000000000e+00,7.180000000000000000e+02,1.000000000000000000e+00,0.000000000000000000e+00,7.950000000000000000e+02,0.000000000000000000e+00,1.000000000000000000e+00,1.400000000000000000e+03,0.000000000000000000e+00,1.000000000000000000e+00,1.587000000000000000e+03,0.000000000000000000e+00,1.000000000000000000e+00,1.810000000000000000e+02,1.000000000000000000e+00,0.000000000000000000e+00,2.500000000000000000e+02,0.000000000000000000e+00,1.000000000000000000e+00,4.325000000000000000e+03,1.000000000000000000e+00,0.000000000000000000e+00,4.670000000000000000e+02,1.000000000000000000e+00,0.000000000000000000e+00
4.815000000000000000e+03,0.000000000000000000e+00,1.000000000000000000e+00,5.365000000000000000e+03,0.000000000000000000e+00,1.000000000000000000e+00,5.366000000000000000e+03,1.000000000000000000e+00,0.000000000000000000e+00,5.571000000000000000e+03,0.000000000000000000e+00,1.000000000000000000e+00,5.750000000000000000e+02,0.000000000000000000e+00,1.000000000000000000e+00,6.734000000000000000e+03,0.000000000000000000e+00,1.000000000000000000e+00,1.153000000000000000e+03,0.000000000000000000e+00,1.000000000000000000e+00,1.350000000000000000e+02,1.000000000000000000e+00,0.000000000000000000e+00,1.627000000000000000e+03,0.000000000000000000e+00,1.000000000000000000e+00,2.224000000000000000e+03,1.000000000000000000e+00,0.000000000000000000e+00
4.966000000000000000e+03,1.000000000000000000e+00,0.000000000000000000e+00,4.966000000000000000e+03,1.000000000000000000e+00,0.000000000000000000e+00,5.365000000000000000e+03,1.000000000000000000e+00,0.000000000000000000e+00,5.380000000000000000e+02,1.000000000000000000e+00,0.000000000000000000e+00,5.616000000000000000e+03,1.000000000000000000e+00,0.000000000000000000e+00,5.740000000000000000e+02,0.000000000000000000e+00,1.000000000000000000e+00,7.020000000000000000e+02,0.000000000000000000e+00,1.000000000000000000e+00,9.770000000000000000e+02,0.000000000000000000e+00,1.000000000000000000e+00,1.115000000000000000e+03,0.000000000000000000e+00,1.000000000000000000e+00,1.160000000000000000e+03,0.000000000000000000e+00,1.000000000000000000e+00
1.460000000000000000e+02,0.000000000000000000e+00,1.000000000000000000e+00,1.824000000000000000e+03,1.000000000000000000e+00,0.000000000000000000e+00,2.060000000000000000e+02,1.000000000000000000e+00,0.000000000000000000e+00,2.080000000000000000e+02,0.000000000000000000e+00,1.000000000000000000e+00,2.821000000000000000e+03,1.000000000000000000e+00,0.000000000000000000e+00,3.183000000000000000e+03,0.000000000000000000e+00,1.000000000000000000e+00,3.635000000000000000e+03,1.000000000000000000e+00,0.000000000000000000e+00,5.060000000000000000e+02,0.000000000000000000e+00,1.000000000000000000e+00,5.610000000000000000e+02,1.000000000000000000e+00,0.000000000000000000e+00,7.370000000000000000e+02,0.000000000000000000e+00,1.000000000000000000e+00
1.042000000000000000e+03,0.000000000000000000e+00,1.000000000000000000e+00,1.585000000000000000e+03,1.000000000000000000e+00,0.000000000000000000e+00,1.640000000000000000e+02,1.000000000000000000e+00,0.000000000000000000e+00,2.005000000000000000e+03,1.000000000000000000e+00,0.000000000000000000e+00,2.364000000000000000e+03,1.000000000000000000e+00,0.000000000000000000e+00,2.611000000000000000e+03,0.000000000000000000e+00,1.000000000000000000e+00,4.670000000000000000e+02,1.000000000000000000e+00,0.000000000000000000e+00,5.120000000000000000e+02,1.000000000000000000e+00,0.000000000000000000e+00,6.210000000000000000e+02,1.000000000000000000e+00,0.000000000000000000e+00,7.320000000000000000e+02,1.000000000000000000e+00,0.000000000000000000e+00
7.910000000000000000e+02,0.000000000000000000e+00,1.000000000000000000e+00,9.570000000000000000e+02,1.000000000000000000e+00,0.000000000000000000e+00,1.220000000000000000e+02,0.000000000000000000e+00,1.000000000000000000e+00,1.280000000000000000e+02,1.000000000000000000e+00,0.000000000000000000e+00,1.291000000000000000e+03,0.000000000000000000e+00,1.000000000000000000e+00,1.805000000000000000e+03,0.000000000000000000e+00,1.000000000000000000e+00,2.549000000000000000e+03,1.000000000000000000e+00,0.000000000000000000e+00,2.900000000000000000e+01,1.000000000000000000e+00,0.000000000000000000e+00,3.118000000000000000e+03,1.000000000000000000e+00,0.000000000000000000e+00,3.250000000000000000e+02,0.000000000000000000e+00,1.000000000000000000e+00
3.739000000000000000e+03,0.000000000000000000e+00,1.000000000000000000e+00,4.218000000000000000e+03,1.000000000000000000e+00,0.000000000000000000e+00,5.120000000000000000e+02,0.000000000000000000e+00,1.000000000000000000e+00,7.290000000000000000e+02,0.000000000000000000e+00,1.000000000000000000e+00,1.872000000000000000e+03,1.000000000000000000e+00,0.000000000000000000e+00,2.720000000000000000e+02,1.000000000000000000e+00,0.000000000000000000e+00,2.840000000000000000e+02,0.000000000000000000e+00,1.000000000000000000e+00,3.246000000000000000e+03,0.000000000000000000e+00,1.000000000000000000e+00,4.170000000000000000e+03,0.000000000000000000e+00,1.000000000000000000e+00,5.289000000000000000e+03,0.000000000000000000e+00,1.000000000000000000e+00
5.571000000000000000e+03,0.000000000000000000e+00,1.000000000000000000e+00,5.990000000000000000e+02,0.000000000000000000e+00,1.000000000000000000e+00,6.500000000000000000e+01,0.000000000000000000e+00,1.000000000000000000e+00,6.960000000000000000e+02,1.000000000000000000e+00,0.000000000000000000e+00,7.610000000000000000e+02,1.000000000000000000e+00,0.000000000000000000e+00,8.670000000000000000e+02,1.000000000000000000e+00,0.000000000000000000e+00,1.175000000000000000e+03,0.000000000000000000e+00,1.000000000000000000e+00,1.938000000000000000e+03,0.000000000000000000e+00,1.000000000000000000e+00,2.500000000000000000e+01,0.000000000000000000e+00,1.000000000000000000e+00,2.730000000000000000e+03,1.000000000000000000e+00,0.000000000000000000e+00
2.738000000000000000e+03,0.000000000000000000e+00,1.000000000000000000e+00,2.776000000000000000e+03,1.000000000000000000e+00,0.000000000000000000e+00,5.110000000000000000e+02,0.000000000000000000e+00,1.000000000000000000e+00,5.120000000000000000e+02,1.000000000000000000e+00,0.000000000000000000e+00,5.210000000000000000e+02,1.000000000000000000e+00,0.000000000000000000e+00,6.321000000000000000e+03,0.000000000000000000e+00,1.000000000000000000e+00,6.900000000000000000e+02,1.000000000000000000e+00,0.000000000000000000e+00,7.170000000000000000e+02,1.000000000000000000e+00,0.000000000000000000e+00,1.244000000000000000e+03,1.000000000000000000e+00,0.000000000000000000e+00,1.668000000000000000e+03,1.000000000000000000e+00,0.000000000000000000e+00
2.499000000000000000e+03,1.000000000000000000e+00,0.000000000000000000e+00,2.800000000000000000e+01,0.000000000000000000e+00,1.000000000000000000e+00,2.890000000000000000e+02,0.000000000000000000e+00,1.000000000000000000e+00,2.980000000000000000e+02,1.000000000000000000e+00,0.000000000000000000e+00,3.400000000000000000e+01,1.000000000000000000e+00,0.000000000000000000e+00,3.670000000000000000e+02,0.000000000000000000e+00,1.000000000000000000e+00,4.207000000000000000e+03,0.000000000000000000e+00,1.000000000000000000e+00,4.853000000000000000e+03,1.000000000000000000e+00,0.000000000000000000e+00,7.460000000000000000e+02,1.000000000000000000e+00,0.000000000000000000e+00,8.130000000000000000e+02,1.000000000000000000e+00,0.000000000000000000e+00
1.000000000000000000e+01,0.000000000000000000e+00,1.000000000000000000e+00,1.246000000000000000e+03,0.000000000000000000e+00,1.000000000000000000e+00,1.583000000000000000e+03,1.000000000000000000e+00,0.000000000000000000e+00,1.627000000000000000e+03,1.000000000000000000e+00,0.000000000000000000e+00,1.753000000000000000e+03,1.000000000000000000e+00,0.000000000000000000e+00,2.695000000000000000e+03,1.000000000000000000e+00,0.000000000000000000e+00,3.040000000000000000e+02,0.000000000000000000e+00,1.000000000000000000e+00,3.596000000000000000e+03,1.000000000000000000e+00,0.000000000000000000e+00,4.090000000000000000e+02,0.000000000000000000e+00,1.000000000000000000e+00,4.282000000000000000e+03,1.000000000000000000e+00,0.000000000000000000e+00
6.030000000000000000e+02,1.000000000000000000e+00,0.000000000000000000e+00,7.063000000000000000e+03,1.000000000000000000e+00,0.000000000000000000e+00,1.345000000000000000e+03,0.000000000000000000e+00,1.000000000000000000e+00,1.467000000000000000e+03,1.000000000000000000e+00,0.000000000000000000e+00,1.586000000000000000e+03,0.000000000000000000e+00,1.000000000000000000e+00,1.640000000000000000e+02,1.000000000000000000e+00,0.000000000000000000e+00,2.614000000000000000e+03,0.000000000000000000e+00,1.000000000000000000e+00,2.940000000000000000e+02,1.000000000000000000e+00,0.000000000000000000e+00,3.215000000000000000e+03,1.000000000000000000e+00,0.000000000000000000e+00,3.852000000000000000e+03,1.000000000000000000e+00,0.000000000000000000e+00
4.480000000000000000e+02,1.000000000000000000e+00,0.000000000000000000e+00,4.952000000000000000e+03,1.000000000000000000e+00,0.000000000000000000e+00,5.770000000000000000e+02,1.000000000000000000e+00,0.000000000000000000e+00,6.060000000000000000e+02,0.000000000000000000e+00,1.000000000000000000e+00,2.024000000000000000e+03,0.000000000000000000e+00,1.000000000000000000e+00,2.031000000000000000e+03,0.000000000000000000e+00,1.000000000000000000e+00,2.614000000000000000e+03,0.000000000000000000e+00,1.000000000000000000e+00,3.185000000000000000e+03,1.000000000000000000e+00,0.000000000000000000e+00,3.199000000000000000e+03,0.000000000000000000e+00,1.000000000000000000e+00,3.880000000000000000e+02,0.000000000000000000e+00,1.000000000000000000e+00
4.272000000000000000e+03,1.000000000000000000e+00,0.000000000000000000e+00,4.350000000000000000e+02,0.000000000000000000e+00,1.000000000000000000e+00,4.916000000000000000e+03,1.000000000000000000e+00,0.000000000000000000e+00,5.310000000000000000e+02,1.000000000000000000e+00,0.000000000000000000e+00,6.755000000000000000e+03,1.000000000000000000e+00,0.000000000000000000e+00,7.450000000000000000e+02,1.000000000000000000e+00,0.000000000000000000e+00,1.240000000000000000e+02,1.000000000000000000e+00,0.000000000000000000e+00,2.785000000000000000e+03,1.000000000000000000e+00,0.000000000000000000e+00,2.833000000000000000e+03,0.000000000000000000e+00,1.000000000000000000e+00,3.240000000000000000e+02,0.000000000000000000e+00,1.000000000000000000e+00
4.349000000000000000e+03,1.000000000000000000e+00,0.000000000000000000e+00,4.522000000000000000e+03,0.000000000000000000e+00,1.000000000000000000e+00,4.540000000000000000e+02,1.000000000000000000e+00,0.000000000000000000e+00,4.658000000000000000e+03,1.000000000000000000e+00,0.000000000000000000e+00,5.050000000000000000e+02,0.000000000000000000e+00,1.000000000000000000e+00,6.526000000000000000e+03,0.000000000000000000e+00,1.000000000000000000e+00,6.990000000000000000e+02,1.000000000000000000e+00,0.000000000000000000e+00,9.060000000000000000e+02,0.000000000000000000e+00,1.000000000000000000e+00,1.124000000000000000e+03,1.000000000000000000e+00,0.000000000000000000e+00,1.461000000000000000e+03,1.000000000000000000e+00,0.000000000000000000e+00
2.217000000000000000e+03,0.000000000000000000e+00,1.000000000000000000e+00,2.280000000000000000e+02,0.000000000000000000e+00,1.000000000000000000e+00,2.326000000000000000e+03,1.000000000000000000e+00,0.000000000000000000e+00,4.282000000000000000e+03,0.000000000000000000e+00,1.000000000000000000e+00,5.240000000000000000e+02,1.000000000000000000e+00,0.000000000000000000e+00,5.290000000000000000e+02,1.000000000000000000e+00,0.000000000000000000e+00,5.470000000000000000e+03,0.000000000000000000e+00,1.000000000000000000e+00,6.150000000000000000e+02,1.000000000000000000e+00,0.000000000000000000e+00,6.470000000000000000e+02,0.000000000000000000e+00,1.000000000000000000e+00,6.631000000000000000e+03,1.000000000000000000e+00,0.000000000000000000e+00
1.640000000000000000e+02,1.000000000000000000e+00,0.000000000000000000e+00,1.706000000000000000e+03,1.000000000000000000e+00,0.000000000000000000e+00,1.722000000000000000e+03,0.000000000000000000e+00,1.000000000000000000e+00,1.928000000000000000e+03,1.000000000000000000e+00,0.000000000000000000e+00,2.400000000000000000e+03,0.000000000000000000e+00,1.000000000000000000e+00,3.446000000000000000e+03,0.000000000000000000e+00,1.000000000000000000e+00,4.272000000000000000e+03,0.000000000000000000e+00,1.000000000000000000e+00,4.750000000000000000e+02,0.000000000000000000e+00,1.000000000000000000e+00,6.370000000000000000e+02,0.000000000000000000e+00,1.000000000000000000e+00,7.322000000000000000e+03,1.000000000000000000e+00,0.000000000000000000e+00
7.410000000000000000e+02,1.000000000000000000e+00,0.000000000000000000e+00,7.770000000000000000e+02,0.000000000000000000e+00,1.000000000000000000e+00,1.030000000000000000e+03,1.000000000000000000e+00,0.000000000000000000e+00,1.275000000000000000e+03,1.000000000000000000e+00,0.000000000000000000e+00,1.380000000000000000e+02,1.000000000000000000e+00,0.000000000000000000e+00,1.672000000000000000e+03,1.000000000000000000e+00,0.000000000000000000e+00,2.100000000000000000e+01,0.000000000000000000e+00,1.000000000000000000e+00,2.402000000000000000e+03,0.000000000000000000e+00,1.000000000000000000e+00,3.565000000000000000e+03,1.000000000000000000e+00,0.000000000000000000e+00,4.480000000000000000e+02,1.000000000000000000e+00,0.000000000000000000e+00
4.815000000000000000e+03,1.000000000000000000e+00,0.000000000000000000e+00,7.100000000000000000e+03,0.000000000000000000e+00,1.000000000000000000e+00,7.430000000000000000e+02,0.000000000000000000e+00,1.000000000000000000e+00,7.740000000000000000e+02,1.000000000000000000e+00,0.000000000000000000e+00,1.031000000000000000e+03,0.000000000000000000e+00,1.000000000000000000e+00,1.825000000000000000e+03,0.000000000000000000e+00,1.000000000000000000e+00,3.020000000000000000e+02,0.000000000000000000e+00,1.000000000000000000e+00,4.251000000000000000e+03,0.000000000000000000e+00,1.000000000000000000e+00,5.100000000000000000e+01,0.000000000000000000e+00,1.000000000000000000e+00,5.503000000000000000e+03,1.000000000000000000e+00,0.000000000000000000e+00
5.572000000000000000e+03,1.000000000000000000e+00,0.000000000000000000e+00,6.285000000000000000e+03,0.000000000000000000e+00,1.000000000000000000e+00,6.573000000000000000e+03,1.000000000000000000e+00,0.000000000000000000e+00,6.984000000000000000e+03,0.000000000000000000e+00,1.000000000000000000e+00,7.210000000000000000e+02,0.000000000000000000e+00,1.000000000000000000e+00,8.510000000000000000e+02,1.000000000000000000e+00,0.000000000000000000e+00,1.078000000000000000e+03,0.000000000000000000e+00,1.000000000000000000e+00,1.104000000000000000e+03,1.000000000000000000e+00,0.000000000000000000e+00,1.567000000000000000e+03,1.000000000000000000e+00,0.000000000000000000e+00,1.588000000000000000e+03,0.000000000000000000e+00,1.000000000000000000e+00
2.833000000000000000e+03,1.000000000000000000e+00,0.000000000000000000e+00,2.895000000000000000e+03,1.000000000000000000e+00,0.000000000000000000e+00,3.020000000000000000e+02,1.000000000000000000e+00,0.000000000000000000e+00,3.200000000000000000e+02,0.000000000000000000e+00,1.000000000000000000e+00,4.503000000000000000e+03,0.000000000000000000e+00,1.000000000000000000e+00,4.810000000000000000e+02,1.000000000000000000e+00,0.000000000000000000e+00,6.230000000000000000e+02,0.000000000000000000e+00,1.000000000000000000e+00,6.695000000000000000e+03,0.000000000000000000e+00,1.000000000000000000e+00,1.036000000000000000e+03,1.000000000000000000e+00,0.000000000000000000e+00,1.230000000000000000e+02,1.000000000000000000e+00,0.000000000000000000e+00
1.253000000000000000e+03,0.000000000000000000e+00,1.000000000000000000e+00,2.181000000000000000e+03,0.000000000000000000e+00,1.000000000000000000e+00,3.200000000000000000e+02,0.000000000000000000e+00,1.000000000000000000e+00,4.130000000000000000e+02,1.000000000000000000e+00,0.000000000000000000e+00,5.380000000000000000e+02,1.000000000000000000e+00,0.000000000000000000e+00,5.470000000000000000e+03,0.000000000000000000e+00,1.000000000000000000e+00,5.591000000000000000e+03,0.000000000000000000e+00,1.000000000000000000e+00,5.766000000000000000e+03,1.000000000000000000e+00,0.000000000000000000e+00,6.280000000000000000e+02,0.000000000000000000e+00,1.000000000000000000e+00,6.423000000000000000e+03,0.000000000000000000e+00,1.000000000000000000e+00
1.330000000000000000e+02,0.000000000000000000e+00,1.000000000000000000e+00,1.691000000000000000e+03,1.000000000000000000e+00,0.000000000000000000e+00,2.190000000000000000e+02,1.000000000000000000e+00,0.000000000000000000e+00,3.580000000000000000e+02,0.000000000000000000e+00,1.000000000000000000e+00,5.220000000000000000e+02,1.000000000000000000e+00,0.000000000000000000e+00,5.987000000000000000e+03,1.000000000000000000e+00,0.000000000000000000e+00,6.157000000000000000e+03,1.000000000000000000e+00,0.000000000000000000e+00,7.180000000000000000e+03,1.000000000000000000e+00,0.000000000000000000e+00,7.320000000000000000e+03,1.000000000000000000e+00,0.000000000000000000e+00,7.550000000000000000e+02,0.000000000000000000e+00,1.000000000000000000e+00
9.000000000000000000e+01,0.000000000000000000e+00,1.000000000000000000e+00,9.600000000000000000e+01,1.000000000000000000e+00,0.000000000000000000e+00,1.116000000000000000e+03,1.000000000000000000e+00,0.000000000000000000e+00,1.660000000000000000e+02,0.000000000000000000e+00,1.000000000000000000e+00,1.672000000000000000e+03,0.000000000000000000e+00,1.000000000000000000e+00,1.690000000000000000e+02,0.000000000000000000e+00,1.000000000000000000e+00,2.510000000000000000e+02,1.000000000000000000e+00,0.000000000000000000e+00,3.870000000000000000e+02,0.000000000000000000e+00,1.000000000000000000e+00,4.019000000000000000e+03,1.000000000000000000e+00,0.000000000000000000e+00,4.320000000000000000e+03,0.000000000000000000e+00,1.000000000000000000e+00
4.740000000000000000e+02,1.000000000000000000e+00,0.000000000000000000e+00,5.140000000000000000e+03,1.000000000000000000e+00,0.000000000000000000e+00,6.241000000000000000e+03,0.000000000000000000e+00,1.000000000000000000e+00,9.600000000000000000e+01,0.000000000000000000e+00,1.000000000000000000e+00,1.469000000000000000e+03,0.000000000000000000e+00,1.000000000000000000e+00,1.703000000000000000e+03,1.000000000000000000e+00,0.000000000000000000e+00,2.820000000000000000e+02,1.000000000000000000e+00,0.000000000000000000e+00,3.540000000000000000e+02,1.000000000000000000e+00,0.000000000000000000e+00,4.740000000000000000e+02,0.000000000000000000e+00,1.000000000000000000e+00,4.805000000000000000e+03,0.000000000000000000e+00,1.000000000000000000e+00
5.050000000000000000e+02,0.000000000000000000e+00,1.000000000000000000e+00,5.390000000000000000e+02,1.000000000000000000e+00,0.000000000000000000e+00,5.663000000000000000e+03,1.000000000000000000e+00,0.000000000000000000e+00,6.250000000000000000e+02,1.000000000000000000e+00,0.000000000000000000e+00,6.970000000000000000e+02,0.000000000000000000e+00,1.000000000000000000e+00,7.380000000000000000e+02,0.000000000000000000e+00,1.000000000000000000e+00,1.182000000000000000e+03,1.000000000000000000e+00,0.000000000000000000e+00,1.420000000000000000e+03,0.000000000000000000e+00,1.000000000000000000e+00,1.440000000000000000e+02,1.000000000000000000e+00,0.000000000000000000e+00,1.668000000000000000e+03,0.000000000000000000e+00,1.000000000000000000e+00
2.506000000000000000e+03,0.000000000000000000e+00,1.000000000000000000e+00,3.350000000000000000e+02,1.000000000000000000e+00,0.000000000000000000e+00,3.408000000000000000e+03,1.000000000000000000e+00,0.000000000000000000e+00,4.244000000000000000e+03,0.000000000000000000e+00,1.000000000000000000e+00,4.452000000000000000e+03,1.000000000000000000e+00,0.000000000000000000e+00,6.397000000000000000e+03,1.000000000000000000e+00,0.000000000000000000e+00,7.380000000000000000e+02,1.000000000000000000e+00,0.000000000000000000e+00,7.640000000000000000e+02,1.000000000000000000e+00,0.000000000000000000e+00,1.000000000000000000e+01,0.000000000000000000e+00,1.000000000000000000e+00,1.345000000000000000e+03,1.000000000000000000e+00,0.000000000000000000e+00
2.060000000000000000e+02,1.000000000000000000e+00,0.000000000000000000e+00,2.853000000000000000e+03,1.000000000000000000e+00,0.000000000000000000e+00,3.408000000000000000e+03,0.000000000000000000e+00,1.000000000000000000e+00,3.480000000000000000e+02,0.000000000000000000e+00,1.000000000000000000e+00,5.465000000000000000e+03,1.000000000000000000e+00,0.000000000000000000e+00,7.027000000000000000e+03,1.000000000000000000e+00,0.000000000000000000e+00,7.136000000000000000e+03,1.000000000000000000e+00,0.000000000000000000e+00,7.430000000000000000e+02,0.000000000000000000e+00,1.000000000000000000e+00,7.760000000000000000e+02,1.000000000000000000e+00,0.000000000000000000e+00,9.160000000000000000e+02,1.000000000000000000e+00,0.000000000000000000e+00
1.025000000000000000e+03,1.000000000000000000e+00,0.000000000000000000e+00,1.170000000000000000e+02,1.000000000000000000e+00,0.000000000000000000e+00,1.753000000000000000e+03,1.000000000000000000e+00,0.000000000000000000e+00,1.809000000000000000e+03,1.000000000000000000e+00,0.000000000000000000e+00,2.772000000000000000e+03,0.000000000000000000e+00,1.000000000000000000e+00,3.270000000000000000e+02,0.000000000000000000e+00,1.000000000000000000e+00,3.590000000000000000e+02,1.000000000000000000e+00,0.000000000000000000e+00,3.592000000000000000e+03,1.000000000000000000e+00,0.000000000000000000e+00,4.450000000000000000e+02,1.000000000000000000e+00,0.000000000000000000e+00,6.330000000000000000e+02,1.000000000000000000e+00,0.000000000000000000e+00
6.984000000000000000e+03,0.000000000000000000e+00,1.000000000000000000e+00,7.050000000000000000e+02,0.000000000000000000e+00,1.000000000000000000e+00,1.317000000000000000e+03,0.000000000000000000e+00,1.000000000000000000e+00,1.954000000000000000e+03,1.000000000000000000e+00,0.000000000000000000e+00,2.020000000000000000e+02,1.000000000000000000e+00,0.000000000000000000e+00,2.706000000000000000e+03,1.000000000000000000e+00,0.000000000000000000e+00,2.710000000000000000e+02,0.000000000000000000e+00,1.000000000000000000e+00,3.212000000000000000e+03,1.000000000000000000e+00,0.000000000000000000e+00,3.910000000000000000e+02,0.000000000000000000e+00,1.000000000000000000e+00,4.948000000000000000e+03,0.000000000000000000e+00,1.000000000000000000e+00
5.060000000000000000e+02,0.000000000000000000e+00,1.000000000000000000e+00,5.063000000000000000e+03,1.000000000000000000e+00,0.000000000000000000e+00,5.511000000000000000e+03,1.000000000000000000e+00,0.000000000000000000e+00,8.070000000000000000e+02,1.000000000000000000e+00,0.000000000000000000e+00,1.419000000000000000e+03,1.000000000000000000e+00,0.000000000000000000e+00,1.662000000000000000e+03,0.000000000000000000e+00,1.000000000000000000e+00,1.690000000000000000e+03,0.000000000000000000e+00,1.000000000000000000e+00,2.364000000000000000e+03,0.000000000000000000e+00,1.000000000000000000e+00,3.223000000000000000e+03,1.000000000000000000e+00,0.000000000000000000e+00,5.600000000000000000e+01,1.000000000000000000e+00,0.000000000000000000e+00
5.920000000000000000e+02,1.000000000000000000e+00,0.000000000000000000e+00,6.000000000000000000e+00,1.000000000000000000e+00,0.000000000000000000e+00,7.320000000000000000e+03,1.000000000000000000e+00,0.000000000000000000e+00,8.920000000000000000e+02,1.000000000000000000e+00,0.000000000000000000e+00,9.100000000000000000e+01,0.000000000000000000e+00,1.000000000000000000e+00,9.500000000000000000e+01,1.000000000000000000e+00,0.000000000000000000e+00,1.183000000000000000e+03,1.000000000000000000e+00,0.000000000000000000e+00,1.530000000000000000e+02,1.000000000000000000e+00,0.000000000000000000e+00,1.581000000000000000e+03,1.000000000000000000e+00,0.000000000000000000e+00,1.826000000000000000e+03,0.000000000000000000e+00,1.000000000000000000e+00
3.118000000000000000e+03,0.000000000000000000e+00,1.000000000000000000e+00,3.508000000000000000e+03,1.000000000000000000e+00,0.000000000000000000e+00,3.520000000000000000e+02,0.000000000000000000e+00,1.000000000000000000e+00,3.660000000000000000e+03,1.000000000000000000e+00,0.000000000000000000e+00,3.700000000000000000e+02,1.000000000000000000e+00,0.000000000000000000e+00,3.738000000000000000e+03,0.000000000000000000e+00,1.000000000000000000e+00,6.270000000000000000e+02,0.000000000000000000e+00,1.000000000000000000e+00,6.860000000000000000e+03,1.000000000000000000e+00,0.000000000000000000e+00,1.100000000000000000e+03,0.000000000000000000e+00,1.000000000000000000e+00,2.150000000000000000e+03,0.000000000000000000e+00,1.000000000000000000e+00
2.479000000000000000e+03,1.000000000000000000e+00,0.000000000000000000e+00,2.607000000000000000e+03,1.000000000000000000e+00,0.000000000000000000e+00,2.610000000000000000e+02,0.000000000000000000e+00,1.000000000000000000e+00,2.874000000000000000e+03,0.000000000000000000e+00,1.000000000000000000e+00,2.895000000000000000e+03,1.000000000000000000e+00,0.000000000000000000e+00,3.650000000000000000e+02,1.000000000000000000e+00,0.000000000000000000e+00,4.060000000000000000e+02,1.000000000000000000e+00,0.000000000000000000e+00,4.180000000000000000e+02,0.000000000000000000e+00,1.000000000000000000e+00,4.380000000000000000e+02,0.000000000000000000e+00,1.000000000000000000e+00,7.420000000000000000e+02,0.000000000000000000e+00,1.000000000000000000e+00
1.220000000000000000e+03,0.000000000000000000e+00,1.000000000000000000e+00,1.840000000000000000e+02,0.000000000000000000e+00,1.000000000000000000e+00,3.280000000000000000e+02,1.000000000000000000e+00,0.000000000000000000e+00,3.670000000000000000e+03,0.000000000000000000e+00,1.000000000000000000e+00,3.738000000000000000e+03,1.000000000000000000e+00,0.000000000000000000e+00,5.341000000000000000e+03,1.000000000000000000e+00,0.000000000000000000e+00,6.695000000000000000e+03,1.000000000000000000e+00,0.000000000000000000e+00,6.713000000000000000e+03,0.000000000000000000e+00,1.000000000000000000e+00,6.738000000000000000e+03,0.000000000000000000e+00,1.000000000000000000e+00,7.320000000000000000e+02,0.000000000000000000e+00,1.000000000000000000e+00
7.550000000000000000e+02,0.000000000000000000e+00,1.000000000000000000e+00,8.500000000000000000e+02,0.000000000000000000e+00,1.000000000000000000e+00,1.334000000000000000e+03,1.000000000000000000e+00,0.000000000000000000e+00,1.450000000000000000e+02,0.000000000000000000e+00,1.000000000000000000e+00,1.510000000000000000e+02,0.000000000000000000e+00,1.000000000000000000e+00,1.706000000000000000e+03,0.000000000000000000e+00,1.000000000000000000e+00,1.997000000000000000e+03,0.000000000000000000e+00,1.000000000000000000e+00,2.961000000000000000e+03,0.000000000000000000e+00,1.000000000000000000e+00,3.319000000000000000e+03,0.000000000000000000e+00,1.000000000000000000e+00,4.901000000000000000e+03,0.000000000000000000e+00,1.000000000000000000e+00
5.789000000000000000e+03,0.000000000000000000e+00,1.000000000000000000e+00,6.000000000000000000e+00,0.000000000000000000e+00,1.000000000000000000e+00,7.198000000000000000e+03,1.000000000000000000e+00,0.000000000000000000e+00,7.580000000000000000e+02,1.000000000000000000e+00,0.000000000000000000e+00,1.019000000000000000e+03,1.000000000000000000e+00,0.000000000000000000e+00,1.275000000000000000e+03,1.000000000000000000e+00,0.000000000000000000e+00,1.370000000000000000e+03,1.000000000000000000e+00,0.000000000000000000e+00,1.852000000000000000e+03,1.000000000000000000e+00,0.000000000000000000e+00,2.005000000000000000e+03,0.000000000000000000e+00,1.000000000000000000e+00,2.053000000000000000e+03,1.000000000000000000e+00,0.000000000000000000e+00
2.380000000000000000e+02,0.000000000000000000e+00,1.000000000000000000e+00,2.500000000000000000e+02,0.000000000000000000e+00,1.000000000000000000e+00,2.933000000000000000e+03,1.000000000000000000e+00,0.000000000000000000e+00,3.050000000000000000e+02,0.000000000000000000e+00,1.000000000000000000e+00,3.541000000000000000e+03,1.000000000000000000e+00,0.000000000000000000e+00,5.293000000000000000e+03,0.000000000000000000e+00,1.000000000000000000e+00,1.316000000000000000e+03,0.000000000000000000e+00,1.000000000000000000e+00,1.620000000000000000e+03,0.000000000000000000e+00,1.000000000000000000e+00,1.703000000000000000e+03,1.000000000000000000e+00,0.000000000000000000e+00,1.834000000000000000e+03,0.000000000000000000e+00,1.000000000000000000e+00
2.730000000000000000e+02,0.000000000000000000e+00,1.000000000000000000e+00,3.130000000000000000e+02,0.000000000000000000e+00,1.000000000000000000e+00,4.122000000000000000e+03,0.000000000000000000e+00,1.000000000000000000e+00,4.400000000000000000e+02,1.000000000000000000e+00,0.000000000000000000e+00,4.873000000000000000e+03,1.000000000000000000e+00,0.000000000000000000e+00,4.916000000000000000e+03,0.000000000000000000e+00,1.000000000000000000e+00,5.775000000000000000e+03,0.000000000000000000e+00,1.000000000000000000e+00,6.100000000000000000e+03,1.000000000000000000e+00,0.000000000000000000e+00,1.620000000000000000e+02,0.000000000000000000e+00,1.000000000000000000e+00,1.707000000000000000e+03,0.000000000000000000e+00,1.000000000000000000e+00
2.411000000000000000e+03,0.000000000000000000e+00,1.000000000000000000e+00,3.187000000000000000e+03,1.000000000000000000e+00,0.000000000000000000e+00,4.340000000000000000e+02,1.000000000000000000e+00,0.000000000000000000e+00,4.400000000000000000e+02,1.000000000000000000e+00,0.000000000000000000e+00,5.100000000000000000e+01,1.000000000000000000e+00,0.000000000000000000e+00,5.150000000000000000e+02,0.000000000000000000e+00,1.000000000000000000e+00,7.320000000000000000e+03,0.000000000000000000e+00,1.000000000000000000e+00,7.370000000000000000e+02,1.000000000000000000e+00,0.000000000000000000e+00,7.980000000000000000e+02,0.000000000000000000e+00,1.000000000000000000e+00,8.690000000000000000e+02,0.000000000000000000e+00,1.000000000000000000e+00
1.450000000000000000e+03,1.000000000000000000e+00,0.000000000000000000e+00,1.478000000000000000e+03,1.000000000000000000e+00,0.000000000000000000e+00,1.567000000000000000e+03,0.000000000000000000e+00,1.000000000000000000e+00,3.250000000000000000e+02,0.000000000000000000e+00,1.000000000000000000e+00,3.310000000000000000e+03,1.000000000000000000e+00,0.000000000000000000e+00,4.180000000000000000e+02,0.000000000000000000e+00,1.000000000000000000e+00,4.299000000000000000e+03,1.000000000000000000e+00,0.000000000000000000e+00,4.430000000000000000e+02,0.000000000000000000e+00,1.000000000000000000e+00,6.103000000000000000e+03,0.000000000000000000e+00,1.000000000000000000e+00,6.810000000000000000e+02,1.000000000000000000e+00,0.000000000000000000e+00
7.322000000000000000e+03,1.000000000000000000e+00,0.000000000000000000e+00,7.960000000000000000e+02,0.000000000000000000e+00,1.000000000000000000e+00,1.040000000000000000e+02,0.000000000000000000e+00,1.000000000000000000e+00,1.286000000000000000e+03,1.000000000000000000e+00,0.000000000000000000e+00,1.880000000000000000e+02,0.000000000000000000e+00,1.000000000000000000e+00,2.607000000000000000e+03,0.000000000000000000e+00,1.000000000000000000e+00,2.730000000000000000e+03,0.000000000000000000e+00,1.000000000000000000e+00,3.110000000000000000e+02,0.000000000000000000e+00,1.000000000000000000e+00,4.130000000000000000e+02,1.000000000000000000e+00,0.000000000000000000e+00,4.390000000000000000e+02,0.000000000000000000e+00,1.000000000000000000e+00
4.697000000000000000e+03,1.000000000000000000e+00,0.000000000000000000e+00,4.816000000000000000e+03,0.000000000000000000e+00,1.000000000000000000e+00,5.076000000000000000e+03,1.000000000000000000e+00,0.000000000000000000e+00,7.890000000000000000e+02,0.000000000000000000e+00,1.000000000000000000e+00,1.824000000000000000e+03,0.000000000000000000e+00,1.000000000000000000e+00,2.020000000000000000e+02,1.000000000000000000e+00,0.000000000000000000e+00,2.036000000000000000e+03,0.000000000000000000e+00,1.000000000000000000e+00,2.168000000000000000e+03,0.000000000000000000e+00,1.000000000000000000e+00,2.180000000000000000e+02,1.000000000000000000e+00,0.000000000000000000e+00,2.874000000000000000e+03,1.000000000000000000e+00,0.000000000000000000e+00
2.900000000000000000e+01,0.000000000000000000e+00,1.000000000000000000e+00,3.010000000000000000e+02,1.000000000000000000e+00,0.000000000000000000e+00,5.200000000000000000e+02,1.000000000000000000e+00,0.000000000000000000e+00,5.690000000000000000e+02,0.000000000000000000e+00,1.000000000000000000e+00,6.769000000000000000e+03,0.000000000000000000e+00,1.000000000000000000e+00,7.970000000000000000e+02,1.000000000000000000e+00,0.000000000000000000e+00,1.133000000000000000e+03,0.000000000000000000e+00,1.000000000000000000e+00,1.522000000000000000e+03,1.000000000000000000e+00,0.000000000000000000e+00,1.772000000000000000e+03,0.000000000000000000e+00,1.000000000000000000e+00,2.310000000000000000e+02,1.000000000000000000e+00,0.000000000000000000e+00
2.930000000000000000e+02,1.000000000000000000e+00,0.000000000000000000e+00,3.118000000000000000e+03,0.000000000000000000e+00,1.000000000000000000e+00,4.260000000000000000e+02,1.000000000000000000e+00,0.000000000000000000e+00,4.800000000000000000e+01,0.000000000000000000e+00,1.000000000000000000e+00,5.540000000000000000e+02,0.000000000000000000e+00,1.000000000000000000e+00,5.571000000000000000e+03,1.000000000000000000e+00,0.000000000000000000e+00,6.245000000000000000e+03,0.000000000000000000e+00,1.000000000000000000e+00,7.800000000000000000e+02,1.000000000000000000e+00,0.000000000000000000e+00,1.124000000000000000e+03,0.000000000000000000e+00,1.000000000000000000e+00,1.471000000000000000e+03,1.000000000000000000e+00,0.000000000000000000e+00
1.600000000000000000e+01,1.000000000000000000e+00,0.000000000000000000e+00,3.560000000000000000e+02,0.000000000000000000e+00,1.000000000000000000e+00,4.133000000000000000e+03,1.000000000000000000e+00,0.000000000000000000e+00,5.000000000000000000e+00,0.000000000000000000e+00,1.000000000000000000e+00,5.056000000000000000e+03,1.000000000000000000e+00,0.000000000000000000e+00,5.293000000000000000e+03,0.000000000000000000e+00,1.000000000000000000e+00,5.592000000000000000e+03,0.000000000000000000e+00,1.000000000000000000e+00,5.720000000000000000e+02,0.000000000000000000e+00,1.000000000000000000e+00,6.160000000000000000e+02,1.000000000000000000e+00,0.000000000000000000e+00,9.390000000000000000e+02,1.000000000000000000e+00,0.000000000000000000e+00
1.313000000000000000e+03,0.000000000000000000e+00,1.000000000000000000e+00,1.400000000000000000e+02,1.000000000000000000e+00,0.000000000000000000e+00,1.427000000000000000e+03,0.000000000000000000e+00,1.000000000000000000e+00,1.430000000000000000e+02,1.000000000000000000e+00,0.000000000000000000e+00,1.660000000000000000e+02,1.000000000000000000e+00,0.000000000000000000e+00,1.727000000000000000e+03,1.000000000000000000e+00,0.000000000000000000e+00,1.907000000000000000e+03,0.000000000000000000e+00,1.000000000000000000e+00,1.983000000000000000e+03,1.000000000000000000e+00,0.000000000000000000e+00,3.960000000000000000e+02,1.000000000000000000e+00,0.000000000000000000e+00,4.282000000000000000e+03,1.000000000000000000e+00,0.000000000000000000e+00
5.670000000000000000e+03,0.000000000000000000e+00,1.000000000000000000e+00,6.677000000000000000e+03,0.000000000000000000e+00,1.000000000000000000e+00,1.190000000000000000e+02,0.000000000000000000e+00,1.000000000000000000e+00,1.400000000000000000e+02,0.000000000000000000e+00,1.000000000000000000e+00,2.479000000000000000e+03,1.000000000000000000e+00,0.000000000000000000e+00,2.780000000000000000e+02,1.000000000000000000e+00,0.000000000000000000e+00,3.295000000000000000e+03,0.000000000000000000e+00,1.000000000000000000e+00,3.954000000000000000e+03,1.000000000000000000e+00,0.000000000000000000e+00,4.522000000000000000e+03,1.000000000000000000e+00,0.000000000000000000e+00,4.918000000000000000e+03,1.000000000000000000e+00,0.000000000000000000e+00
5.931000000000000000e+03,0.000000000000000000e+00,1.000000000000000000e+00,7.380000000000000000e+02,1.000000000000000000e+00,0.000000000000000000e+00,7.890000000000000000e+02,0.000000000000000000e+00,1.000000000000000000e+00,7.910000000000000000e+02,0.000000000000000000e+00,1.000000000000000000e+00,1.116000000000000000e+03,0.000000000000000000e+00,1.000000000000000000e+00,1.460000000000000000e+02,0.000000000000000000e+00,1.000000000000000000e+00,1.587000000000000000e+03,0.000000000000000000e+00,1.000000000000000000e+00,1.588000000000000000e+03,0.000000000000000000e+00,1.000000000000000000e+00,1.606000000000000000e+03,1.000000000000000000e+00,0.000000000000000000e+00,2.549000000000000000e+03,0.000000000000000000e+00,1.000000000000000000e+00
2.833000000000000000e+03,0.000000000000000000e+00,1.000000000000000000e+00,2.890000000000000000e+02,0.000000000000000000e+00,1.000000000000000000e+00,3.657000000000000000e+03,1.000000000000000000e+00,0.000000000000000000e+00,3.670000000000000000e+02,1.000000000000000000e+00,0.000000000000000000e+00,4.658000000000000000e+03,1.000000000000000000e+00,0.000000000000000000e+00,4.853000000000000000e+03,0.000000000000000000e+00,1.000000000000000000e+00,1.299000000000000000e+03,0.000000000000000000e+00,1.000000000000000000e+00,1.642000000000000000e+03,0.000000000000000000e+00,1.000000000000000000e+00,2.364000000000000000e+03,0.000000000000000000e+00,1.000000000000000000e+00,3.501000000000000000e+03,0.000000000000000000e+00,1.000000000000000000e+00
4.160000000000000000e+02,1.000000000000000000e+00,0.000000000000000000e+00,4.522000000000000000e+03,0.000000000000000000e+00,1.000000000000000000e+00,4.620000000000000000e+02,1.000000000000000000e+00,0.000000000000000000e+00,4.840000000000000000e+02,1.000000000000000000e+00,0.000000000000000000e+00,5.572000000000000000e+03,0.000000000000000000e+00,1.000000000000000000e+00,6.060000000000000000e+02,1.000000000000000000e+00,0.000000000000000000e+00,7.370000000000000000e+02,1.000000000000000000e+00,0.000000000000000000e+00,8.720000000000000000e+02,0.000000000000000000e+00,1.000000000000000000e+00,1.116000000000000000e+03,1.000000000000000000e+00,0.000000000000000000e+00,1.746000000000000000e+03,0.000000000000000000e+00,1.000000000000000000e+00
1.937000000000000000e+03,0.000000000000000000e+00,1.000000000000000000e+00,2.047000000000000000e+03,0.000000000000000000e+00,1.000000000000000000e+00,2.181000000000000000e+03,0.000000000000000000e+00,1.000000000000000000e+00,2.649000000000000000e+03,1.000000000000000000e+00,0.000000000000000000e+00,3.215000000000000000e+03,1.000000000000000000e+00,0.000000000000000000e+00,3.520000000000000000e+02,1.000000000000000000e+00,0.000000000000000000e+00,3.580000000000000000e+02,0.000000000000000000e+00,1.000000000000000000e+00,3.840000000000000000e+02,1.000000000000000000e+00,0.000000000000000000e+00,5.987000000000000000e+03,0.000000000000000000e+00,1.000000000000000000e+00,7.960000000000000000e+02,0.000000000000000000e+00,1.000000000000000000e+00
